,0,1,2,3,4,5,6,7,8,9,10,11
0,15.02,15.586,48.38,14.56,21.17,38.25,8.77,3.326,8.85,11.21,15.4,22.12
1,18.9,36.56,66.75,26.44,69.6,54.8,11.74,1.236,3.676,9.14,9.016,8.62
2,14.7,59.56,85.75,16.27,29.0,112.3,9.18,17.06,27.44,15.56,19.1,22.97
3,14.19,35.88,28.6,30.27,25.84,34.75,26.78,4.88,7.184,5.28,5.387,7.508
4,24.92,29.17,27.86,33.2,14.2,27.62,6.492,3.283,9.47,5.047,4.742,6.605
5,22.08,17.89,15.3,13.81,15.96,5.176,38.56,3.312,19.39,24.77,8.59,3.959
6,3.467,13.75,3.213,6.258,3.656,4.16,8.11,17.03,17.16,15.83,6.555,6.37
7,10.19,26.17,14.55,15.195,10.92,42.34,1.175,5.184,4.098,6.34,8.414,7.316
8,31.06,49.56,36.8,35.97,38.75,31.42,8.734,5.273,6.08,10.41,10.805,13.87
9,12.84,4.88,14.82,7.2,34.0,4.363,8.5,3.516,7.61,11.36,4.42,5.39
10,17.61,73.0,92.75,44.16,92.06,95.7,10.29,5.434,51.25,17.14,10.695,8.53
11,19.36,30.72,33.72,22.92,36.47,30.14,8.06,2.459,26.02,16.42,14.91,21.95
12,30.86,45.0,30.1,30.53,14.914,40.28,11.055,2.451,13.586,27.69,23.98,14.26
13,15.69,5.81,27.77,7.082,64.75,6.14,8.78,3.99,11.29,3.615,4.92,7.617
14,20.66,17.4,42.66,14.945,89.44,27.55,12.05,11.945,18.58,10.65,9.88,20.33
15,32.28,52.6,27.19,52.88,8.87,41.4,81.5,24.19,23.5,21.11,21.44,29.55
16,12.24,96.56,58.1,34.66,11.766,127.94,8.39,9.06,15.95,37.78,22.4,17.89
17,7.805,50.1,56.28,25.94,5.504,49.78,8.54,4.242,5.574,8.39,5.965,5.773
18,15.92,6.062,9.23,8.914,7.758,7.56,4.387,6.61,17.81,6.37,4.035,3.52
19,2.844,67.75,54.34,39.28,3.633,63.53,3.266,2.312,37.22,22.55,17.28,10.97
20,15.03,6.16,9.625,6.19,47.88,7.33,0.882,5.69,4.46,5.223,6.832,5.676
21,5.457,15.66,5.242,10.38,2.193,12.59,2.053,1.976,4.465,5.77,6.895,6.59
22,5.54,267.5,188.6,72.9,21.66,450.5,3.129,10.35,146.4,131.1,92.1,84.06
23,7.742,28.44,12.29,16.2,4.906,29.17,12.53,12.945,9.89,7.19,16.72,16.48
24,15.25,11.36,44.06,14.01,15.586,23.88,8.11,4.816,18.1,4.22,4.45,6.055
25,36.97,102.25,40.2,67.06,19.08,110.3,17.94,11.9,21.77,41.7,36.16,39.1
26,21.0,41.88,21.39,20.03,22.55,31.77,9.5,22.31,28.94,14.47,22.7,17.34
27,21.17,48.4,41.7,27.86,20.55,84.94,7.664,6.598,7.38,9.23,7.094,10.29
28,43.44,25.17,28.88,34.5,55.03,30.08,14.47,4.21,4.59,7.973,19.19,33.4
29,17.97,29.45,39.28,22.81,29.38,37.88,5.316,2.941,8.15,14.7,5.3,6.727
30,18.28,11.32,12.336,14.22,32.62,11.07,5.715,6.875,10.516,4.29,5.07,5.875
31,34.66,14.22,16.06,20.53,6.64,17.17,5.68,3.795,6.28,5.406,9.57,16.9
32,12.57,20.11,17.55,16.39,25.45,23.94,2.104,6.934,19.11,11.58,8.84,8.984
33,5.688,48.56,111.25,23.12,15.055,83.9,11.766,2.215,25.78,26.77,42.62,28.02
34,11.266,6.332,28.39,4.49,77.4,16.08,7.312,4.344,11.3,2.742,2.133,2.814
35,10.76,27.73,18.42,15.164,3.414,86.1,9.54,9.61,12.57,10.516,8.56,7.355
36,15.28,12.805,35.2,13.25,15.805,17.83,8.484,2.188,17.0,7.19,5.664,5.84
37,35.7,13.78,20.42,13.24,51.53,19.3,5.363,5.098,7.11,7.117,8.24,16.33
38,19.38,100.25,18.11,41.84,10.9,80.94,6.844,6.07,15.766,17.61,14.54,26.1
39,13.44,45.97,5.82,24.14,6.223,38.38,6.324,11.52,26.8,21.42,18.55,17.52
40,23.2,9.055,4.91,13.73,2.645,6.844,4.453,7.203,8.24,5.38,7.9,7.996
41,8.99,3.586,26.08,4.742,38.3,5.668,1.336,13.65,3.615,3.756,3.389,4.285
42,18.0,1.688,1.828,4.215,2.787,1.026,21.94,9.75,4.92,3.309,3.447,4.54
43,18.86,29.27,109.1,21.5,31.08,49.1,19.75,4.875,5.8,13.58,13.336,14.18
44,48.3,124.56,69.94,84.7,29.92,183.6,55.53,67.5,66.7,34.78,30.31,35.4
45,10.17,17.25,44.47,11.15,23.78,29.75,14.25,21.64,13.836,8.73,8.12,7.35
46,25.52,14.42,42.0,20.1,36.94,12.12,3.494,3.242,12.79,4.86,2.92,5.426
47,7.336,23.08,28.48,17.5,54.44,23.6,85.7,23.05,13.375,12.98,11.12,11.92
48,27.16,23.36,24.81,28.36,17.14,22.67,37.75,13.74,9.61,11.35,16.1,29.1
49,10.13,77.6,53.4,40.88,25.0,45.5,14.72,12.8,27.73,29.78,26.52,42.4
50,10.21,10.61,16.2,7.6,23.92,10.57,1.469,7.402,27.9,14.15,8.9,4.375
51,13.05,17.03,17.97,18.55,14.47,13.17,19.2,17.4,11.56,4.51,3.742,5.14
52,20.84,11.445,9.305,9.86,11.914,7.023,10.67,6.367,10.664,8.41,8.68,7.96
53,3.543,30.33,22.88,10.305,2.008,74.4,12.12,12.87,11.22,9.3,10.98,10.73
54,36.0,61.8,32.16,48.8,21.31,47.44,5.97,4.098,23.73,29.31,19.47,16.44
55,54.75,47.75,26.58,49.88,26.06,39.72,12.63,4.004,29.38,32.88,60.1,54.6
56,19.23,20.75,12.4,21.06,23.56,18.27,7.855,4.418,16.02,11.34,8.85,9.35
57,28.89,8.92,5.277,12.63,15.055,5.992,3.516,4.457,18.1,13.945,5.484,5.48
58,16.17,11.75,15.55,11.805,21.69,9.24,63.22,3.96,8.22,6.02,4.824,6.71
59,28.39,55.75,7.33,41.38,18.88,42.47,3.225,3.7,8.52,29.86,25.23,19.23
60,16.5,19.7,17.97,17.9,41.2,21.23,7.46,12.28,24.92,12.6,7.324,6.71
61,20.12,9.516,44.25,16.94,30.0,8.01,3.98,5.445,13.125,8.234,6.95,5.664
62,21.05,22.47,66.94,20.23,29.9,36.47,25.19,2.209,4.96,6.35,3.584,2.805
63,11.516,33.84,8.33,15.2,11.914,8.53,1.99,3.988,19.06,20.69,10.766,10.11
64,22.28,17.11,13.0,17.27,48.47,14.484,15.516,22.23,6.586,5.27,7.008,10.68
65,9.75,11.7,17.23,11.01,29.78,12.02,12.91,6.29,10.09,5.92,7.137,5.277
66,36.8,14.016,6.51,18.66,13.18,10.47,8.3,3.129,34.1,3.488,5.402,7.71
67,27.73,38.78,10.914,39.2,18.73,33.12,7.48,5.254,7.98,12.54,18.23,28.84
68,8.72,10.52,15.29,9.03,23.39,11.84,5.32,12.19,11.99,6.0,3.629,4.402
69,34.6,11.51,8.84,14.02,4.67,8.47,3.426,7.723,9.38,7.06,4.723,5.39
70,6.855,16.97,17.44,10.06,8.64,46.94,5.38,4.582,5.746,3.525,2.47,1.527
71,130.2,28.69,12.625,61.47,29.31,13.266,23.42,5.133,9.484,18.08,8.32,10.59
72,9.74,40.84,3.12,22.11,4.3,15.734,9.26,2.955,5.95,2.69,4.406,6.926
73,19.77,7.23,6.723,8.88,22.84,6.027,4.395,3.43,8.22,6.254,5.223,7.258
74,22.38,17.19,15.82,18.44,15.07,14.08,15.07,10.65,7.875,2.52,5.16,4.06
75,11.33,17.95,10.09,14.43,8.195,19.17,4.277,2.49,12.414,12.234,4.625,6.055
76,34.1,34.16,61.38,38.78,42.62,22.17,6.5,16.55,22.83,19.33,23.97,22.39
77,42.0,19.34,16.89,24.7,43.2,14.234,13.16,5.336,27.78,16.98,9.76,13.5
78,24.83,13.52,24.16,20.5,23.36,21.95,4.48,14.72,30.34,20.36,18.53,13.16
79,36.62,24.03,22.8,29.28,56.6,17.08,7.066,14.484,20.81,11.41,12.375,13.305
80,16.97,18.4,24.53,16.22,31.03,24.94,1.947,1.313,115.06,8.48,8.945,14.46
81,73.3,25.44,121.75,42.53,100.4,28.22,10.82,5.184,15.18,16.95,12.36,13.09
82,33.53,8.74,29.92,16.44,59.44,12.31,9.18,6.098,8.46,4.69,6.035,7.117
83,36.56,31.66,37.7,30.78,56.9,36.34,5.51,5.633,13.3,15.01,21.48,20.67
84,14.375,4.332,1.721,5.348,20.38,3.13,1.77,5.387,8.42,6.715,6.633,5.938
85,38.66,16.22,10.3,22.4,16.12,14.336,11.81,11.61,23.67,12.266,10.56,8.55
86,68.6,24.92,24.25,27.08,52.53,23.1,14.42,10.18,23.25,22.6,12.086,6.816
87,19.64,28.7,22.61,28.28,17.44,17.73,14.32,6.504,10.71,11.29,8.83,6.758
88,18.34,28.03,49.53,22.39,70.06,29.75,10.41,22.75,26.06,9.625,14.47,17.27
89,15.71,13.695,9.875,9.25,28.31,14.4,3.885,3.783,4.695,3.12,4.973,4.848
90,24.08,19.16,54.34,16.88,33.9,24.34,7.83,3.39,3.785,2.4,4.785,7.97
91,36.56,18.48,16.45,24.58,44.5,17.42,9.56,2.72,27.62,11.97,9.53,11.45
92,6.51,9.336,24.4,8.88,12.63,13.68,13.56,9.555,5.96,4.508,2.316,47.16
93,6.312,5.12,7.242,5.555,11.2,7.12,2.213,4.09,8.63,5.047,3.8,3.516
94,20.98,6.066,7.3,8.35,8.76,5.273,4.605,2.031,4.91,3.521,3.998,6.355
95,8.64,8.375,12.22,7.297,20.33,9.97,4.766,4.438,15.61,2.127,2.465,1.484
96,6.94,15.85,5.73,9.086,7.21,4.426,8.52,4.98,4.348,7.27,4.242,2.975
97,28.14,13.64,14.06,22.11,35.7,9.805,8.24,0.5337,5.133,28.0,7.992,5.57
98,18.03,10.1,7.863,10.77,12.85,9.64,9.336,1.455,6.14,3.955,3.645,3.451
99,22.88,14.67,8.88,21.6,28.62,11.68,4.9,1.232,15.375,17.1,15.22,14.914
100,22.73,22.14,10.86,26.47,30.34,24.55,5.637,10.48,15.48,7.383,9.08,10.3
101,4.29,56.22,133.5,24.83,16.78,132.0,4.844,26.28,32.53,11.86,6.92,7.453
102,88.06,93.5,12.73,116.8,32.03,24.81,15.05,9.0,15.16,26.11,41.12,72.44
103,12.22,7.945,11.16,7.492,12.13,9.97,3.94,6.246,4.11,4.45,4.293,6.25
104,21.25,16.02,16.66,16.86,76.6,18.06,2.262,4.26,14.03,14.164,8.9,6.93
105,37.28,43.25,39.38,40.44,25.44,38.22,27.47,0.7754,25.81,11.32,13.15,15.5
106,21.56,12.04,26.9,17.88,33.38,13.65,11.09,4.742,13.01,12.91,7.816,7.105
107,29.55,46.7,93.9,37.5,37.2,39.0,9.65,13.68,28.3,9.55,12.04,11.484
108,27.38,7.293,18.67,11.87,37.3,3.059,7.875,3.227,6.316,7.473,7.047,10.05
109,9.3,17.84,15.664,10.09,36.0,25.77,11.75,12.83,14.46,5.91,5.098,4.72
110,29.89,25.4,57.44,16.77,140.9,37.03,8.555,6.258,7.836,13.234,11.85,11.45
111,3.58,29.25,14.125,9.62,2.615,27.88,6.105,5.383,12.04,7.523,4.297,4.875
112,6.383,20.2,11.81,13.66,4.758,13.9,4.234,5.61,15.59,6.44,6.72,3.773
113,20.67,4.156,3.375,6.273,9.1,2.516,2.846,3.83,7.9,5.676,4.676,4.16
114,7.414,6.723,4.625,6.03,33.62,6.957,6.098,5.375,1.65,1.268,1.16,1.994
115,17.25,48.47,20.23,34.16,8.63,41.4,6.062,10.94,10.99,10.99,14.59,19.28
116,11.836,36.94,25.44,18.45,15.484,71.44,15.3,19.88,21.02,9.68,8.73,10.39
117,13.62,20.92,21.34,18.28,26.73,15.875,15.234,4.773,13.33,10.3,8.11,6.93
118,9.38,28.88,12.47,15.16,8.625,62.3,3.447,22.06,8.5,6.37,11.86,12.64
119,37.34,18.67,4.305,21.89,37.0,9.59,5.98,6.758,28.31,7.04,9.2,5.234
120,6.152,11.88,11.44,5.66,8.12,26.81,6.934,14.125,18.12,10.664,3.023,4.164
121,10.625,36.1,12.09,18.8,5.12,27.05,4.812,6.902,10.52,6.188,9.7,8.07
122,29.17,14.24,7.76,18.53,26.34,12.19,5.52,8.98,9.9,6.934,6.324,6.094
123,14.04,10.23,25.55,10.8,39.28,10.09,5.473,3.775,10.6,4.305,4.82,6.316
124,22.39,9.71,12.016,13.08,15.54,11.375,7.707,14.48,8.45,10.32,6.45,6.62
125,16.58,22.84,43.1,18.64,37.16,30.53,8.95,2.334,46.12,8.84,9.52,11.81
126,17.34,13.01,13.82,8.45,51.0,13.664,1.532,3.023,4.105,6.96,20.92,4.496
127,58.9,32.25,64.6,43.22,86.0,39.88,18.64,10.305,15.086,12.125,15.5,17.55
128,6.25,14.875,41.2,5.957,10.836,16.77,9.91,11.01,18.33,6.6,6.617,6.08
129,9.24,29.89,12.38,26.69,4.434,19.95,4.785,6.395,19.36,19.3,18.55,14.914
130,21.02,16.7,27.6,18.03,58.4,15.18,1.802,3.102,20.06,22.97,27.92,24.11
131,5.9,45.4,14.484,12.375,4.938,108.25,4.574,10.14,16.77,8.61,8.94,9.04
132,27.58,15.805,52.12,19.88,49.06,22.38,11.305,5.977,15.78,12.99,14.87,19.73
133,8.99,36.22,8.02,15.32,4.64,27.86,4.74,18.86,18.1,10.68,8.914,12.92
134,13.34,39.28,24.14,30.17,5.75,45.66,23.52,10.58,5.367,3.273,5.13,21.06
135,13.91,24.7,30.22,18.92,26.4,26.48,1.934,4.87,45.62,13.45,11.31,12.484
136,9.11,24.39,30.55,22.6,33.56,25.94,4.496,4.32,5.62,30.72,7.727,6.426
137,9.11,24.39,30.55,22.6,33.56,25.94,4.496,4.32,5.62,30.72,7.727,6.426
138,10.53,6.188,37.53,12.39,23.53,19.34,3.203,7.715,9.01,5.586,4.207,6.39
139,5.297,15.03,16.89,9.49,8.77,26.06,2.098,3.568,15.5,4.223,1.226,2.83
140,15.74,33.2,21.55,21.67,9.13,23.53,11.336,3.873,5.227,2.959,5.145,5.547
141,18.22,33.53,17.73,37.9,13.91,22.56,10.38,14.96,13.99,10.43,20.84,19.0
142,12.8,3.395,4.54,10.234,5.625,3.535,14.36,7.43,4.54,4.145,19.45,21.55
143,12.8,3.395,4.54,10.234,5.625,3.535,14.36,7.43,4.54,4.145,19.45,21.55
144,11.234,33.0,14.32,18.23,4.88,42.84,3.252,7.74,11.68,13.48,25.36,34.7
145,16.23,1.934,1.431,17.75,1.859,1.656,4.285,6.43,8.33,4.617,2.812,2.016
146,21.94,13.53,27.38,15.96,51.53,17.5,7.297,0.798,13.06,7.734,6.62,9.52
147,46.62,29.45,15.984,28.97,12.99,20.11,21.19,7.695,10.336,13.59,16.02,26.6
148,10.6,6.66,43.06,7.27,22.52,9.5,3.21,1.988,7.11,6.93,3.445,4.29
149,18.88,15.47,4.082,14.16,14.21,7.125,2.182,11.77,14.375,10.2,2.947,3.582
150,17.9,11.67,3.652,15.73,12.23,8.52,6.746,3.732,7.453,10.74,8.195,12.72
151,56.28,53.03,47.5,29.17,54.97,42.16,5.49,1.922,3.145,1.242,2.654,2.46
152,14.88,17.06,18.84,17.58,10.3,19.2,5.773,7.53,13.88,13.61,16.56,11.79
153,16.05,23.1,12.06,23.33,12.19,19.02,92.2,13.15,20.36,17.25,11.055,9.39
154,11.69,79.56,21.1,44.78,7.42,46.3,11.29,11.31,6.477,6.355,19.48,50.62
155,5.25,16.9,19.5,8.88,12.96,39.1,11.45,18.39,14.805,7.082,2.34,2.242
156,27.86,52.03,7.742,61.56,5.836,26.56,14.79,21.1,40.47,26.88,20.33,33.75
157,88.8,146.0,67.4,153.2,9.9,107.6,8.16,12.17,17.3,44.2,82.06,72.75
158,7.67,24.12,7.957,20.56,2.05,15.734,10.945,10.44,10.164,5.82,12.09,23.62
159,5.086,22.12,10.85,10.87,3.732,36.53,5.414,10.36,8.016,4.777,2.658,6.68
160,33.78,57.3,34.28,45.38,24.05,51.03,6.805,2.842,5.055,6.375,22.8,45.47
161,1.072,10.945,0.7183,8.914,0.7617,3.217,0.93,3.395,4.848,6.613,4.55,4.547
162,34.5,46.44,126.2,44.22,21.84,41.94,9.414,1.85,7.066,28.48,26.88,38.6
163,25.89,28.39,26.94,25.77,17.89,11.46,2.033,2.443,2.564,4.047,25.48,17.58
164,13.47,8.97,21.61,10.65,21.38,9.69,2.777,1.589,7.074,6.18,5.89,5.85
165,7.27,19.0,0.6177,24.1,1.073,2.482,7.227,6.082,8.24,12.2,19.77,25.69
166,10.12,24.12,26.44,15.87,19.66,26.52,7.066,14.41,17.5,15.445,4.637,6.062
167,11.95,30.53,2.06,36.9,2.648,7.69,11.24,13.69,5.285,1.705,9.92,15.26
168,11.19,41.53,14.73,35.1,9.375,31.17,4.996,21.56,17.45,12.484,9.57,9.164
169,5.777,8.46,5.836,6.906,5.914,7.53,4.246,15.414,4.3,1.861,1.951,4.312
170,3.248,5.71,9.46,4.72,3.809,15.336,4.79,8.945,8.85,2.572,0.6104,0.9
171,28.67,59.44,14.92,38.78,20.47,46.56,9.234,14.19,23.83,26.53,21.14,35.8
172,31.14,32.47,7.63,33.2,13.9,14.79,6.58,7.574,12.08,4.94,8.164,10.86
173,23.55,17.53,9.86,17.77,18.14,11.89,10.484,3.705,7.027,13.445,6.434,5.48
174,26.33,50.84,17.4,34.84,13.33,105.56,35.94,10.45,9.72,14.79,21.9,21.81
175,15.15,22.28,17.7,19.6,31.44,18.64,8.17,9.93,9.67,9.9,7.78,11.305
176,10.7,117.7,15.46,83.94,7.895,41.62,9.16,28.39,30.64,53.8,67.25,44.56
177,30.75,6.797,5.273,9.945,15.89,6.25,6.293,4.473,17.23,9.23,9.0,7.203
178,28.25,31.94,10.53,33.6,26.11,21.16,4.535,5.832,8.26,16.52,16.8,27.31
179,12.17,302.5,25.47,49.28,13.83,59.38,10.07,7.02,5.383,8.06,15.555,19.25
180,5.395,45.4,8.945,16.97,6.574,19.19,7.484,29.6,28.0,29.86,51.1,70.5
181,9.94,5.082,2.986,14.94,4.73,2.355,5.016,5.938,5.68,6.145,6.367,8.016
182,14.57,18.97,19.56,19.11,22.38,19.8,19.55,5.03,2.352,4.74,8.44,11.914
183,17.56,52.47,5.895,57.34,4.074,20.98,4.395,3.79,8.77,7.555,11.76,14.61
184,5.758,29.53,37.84,11.27,7.387,47.44,2.39,1.842,5.133,20.83,9.914,8.52
185,9.9,13.734,32.3,11.62,4.17,21.11,4.973,2.922,2.004,1.606,2.344,8.69
186,41.56,38.62,59.38,26.78,41.97,54.2,11.42,4.4,8.266,15.94,28.89,24.45
187,21.47,26.95,4.855,32.44,5.05,22.72,2.893,27.81,20.61,11.89,9.02,21.52
188,20.5,74.8,7.133,58.66,4.824,32.8,1.339,2.396,3.355,13.58,30.53,36.47
189,15.016,21.22,12.734,49.78,9.484,15.15,61.34,5.47,8.63,8.164,19.25,16.89
190,7.49,14.32,26.1,8.695,17.36,19.31,8.01,2.049,4.27,5.523,2.283,2.145
191,3.943,15.95,34.34,10.56,17.73,25.11,22.28,28.97,16.39,5.785,3.611,3.654
192,10.875,21.2,37.72,16.12,16.64,32.62,4.457,10.0,5.17,1.98,1.679,2.611
193,12.51,33.6,8.78,15.52,9.0,31.3,4.64,5.105,13.12,8.2,4.492,14.39
194,6.27,17.84,13.43,10.15,8.34,14.8,10.555,28.61,13.84,7.7,11.48,7.824
195,18.97,7.246,9.05,8.734,29.5,7.336,7.184,3.543,18.16,10.04,6.586,5.242
196,15.766,13.555,18.19,16.83,25.17,18.97,17.55,14.47,11.58,10.29,9.63,14.37
197,22.86,13.04,12.17,13.82,24.36,12.77,5.258,3.393,2.545,4.176,15.55,12.516
198,14.28,114.0,254.6,58.97,37.44,183.2,6.902,16.23,29.6,17.53,31.81,41.66
199,12.53,27.34,25.6,18.66,31.48,34.4,6.79,4.84,4.46,26.55,38.66,39.66
200,24.7,44.03,68.06,38.6,7.633,54.9,11.77,35.62,14.0,13.7,21.16,21.73
201,6.51,25.92,25.23,12.83,10.66,63.75,1.613,10.375,27.19,50.1,35.88,23.66
202,15.39,9.5,24.62,9.63,32.22,19.86,25.33,6.867,5.734,2.475,3.178,5.15
203,49.84,10.266,10.35,20.0,14.36,7.56,7.832,1.561,2.598,15.81,10.49,6.75
204,12.74,18.94,21.06,13.195,17.03,21.1,30.22,5.44,8.93,7.406,6.594,8.32
205,26.62,18.6,28.25,18.48,31.81,15.59,21.52,8.63,16.12,13.95,10.016,10.19
206,20.06,28.73,45.34,22.39,37.56,38.16,10.46,26.81,11.19,7.06,9.16,11.86
207,16.31,16.02,22.77,14.01,26.61,12.74,8.55,5.926,13.664,14.03,11.945,14.71
208,24.88,8.65,9.4,10.625,9.2,8.2,16.42,6.05,23.98,1.236,1.412,5.71
209,16.27,19.19,7.316,19.9,17.97,13.43,25.2,24.6,10.89,5.51,4.355,6.97
210,12.52,15.45,38.06,12.62,11.97,19.55,5.836,3.21,12.44,21.33,6.535,3.268
211,25.11,28.73,106.5,26.19,36.56,38.53,17.84,29.81,42.9,28.92,21.17,17.45
212,18.02,29.89,39.22,20.42,34.12,42.9,14.055,8.6,15.65,9.38,9.64,14.2
213,9.695,11.53,45.12,7.746,13.63,19.28,4.484,5.094,8.1,8.055,7.07,18.08
214,13.19,112.8,49.9,53.88,14.85,149.1,7.72,15.97,21.47,34.53,60.34,58.75
215,47.25,43.38,80.3,42.06,44.66,42.12,8.31,12.25,11.3,7.227,11.18,19.78
216,24.66,38.72,38.62,32.8,24.95,29.45,4.867,4.73,14.21,17.45,23.6,16.86
217,16.31,11.41,16.06,11.84,34.6,12.555,5.996,6.34,11.44,3.867,3.111,10.97
218,24.22,6.863,7.63,17.62,16.17,4.75,7.688,2.59,3.498,10.29,6.58,8.84
219,24.23,59.6,10.34,59.8,5.1,35.62,37.06,39.25,30.7,12.26,13.66,23.06
220,5.06,20.88,33.28,9.984,4.215,73.1,1.314,3.977,6.285,16.44,18.36,8.49
221,118.06,75.5,50.72,85.1,45.28,61.5,122.3,103.2,11.79,16.64,25.56,24.89
222,9.31,12.64,6.848,11.62,2.666,12.055,1.456,2.0,3.178,7.508,2.703,2.262
223,20.2,12.11,9.625,14.96,34.34,8.375,8.1,12.65,21.08,8.97,5.957,4.64
224,34.7,48.25,85.0,35.88,67.6,58.62,32.16,10.125,2.559,5.953,13.45,40.16
225,8.31,20.05,3.68,12.984,4.57,5.53,36.4,3.37,3.078,2.547,7.168,5.094
226,13.836,35.84,50.9,20.27,12.25,73.8,1.355,7.742,26.86,65.25,27.9,14.25
227,10.42,21.86,23.94,11.95,11.26,62.1,13.3,9.59,14.58,7.445,8.77,7.43
228,27.88,24.88,38.9,28.64,28.3,28.06,11.2,5.406,11.414,16.48,9.94,11.72
229,13.14,5.977,12.45,5.14,37.1,10.66,1.045,1.473,12.73,21.61,5.03,4.164
230,8.05,7.387,5.49,6.336,10.74,5.164,6.445,0.9473,5.793,5.742,3.44,4.69
231,21.69,12.74,11.17,17.03,54.0,9.41,5.176,1.458,7.26,6.07,8.68,7.695
232,11.984,25.39,65.25,17.84,16.77,58.84,25.92,28.39,12.02,2.102,2.395,9.73
233,32.97,65.7,96.06,45.4,73.7,77.8,2.146,3.285,3.016,8.85,122.4,12.11
234,15.97,30.16,6.52,43.25,7.95,17.58,25.77,9.44,12.43,15.7,21.95,32.38
235,34.38,6.797,13.42,13.4,75.0,8.46,17.92,11.66,17.3,3.23,2.723,2.613
236,8.66,7.81,24.33,9.305,23.81,6.215,3.018,5.023,13.164,10.766,8.82,6.535
237,8.555,37.38,8.97,42.25,5.203,13.23,12.26,4.094,8.125,11.82,16.34,47.7
238,16.48,16.3,40.1,11.65,23.64,30.14,5.19,2.965,6.72,18.77,5.8,4.5
239,6.27,23.22,10.266,12.5,5.336,24.81,6.965,6.07,14.74,9.89,6.117,4.184
240,35.6,40.47,35.38,37.6,30.38,45.38,8.01,7.742,26.67,32.16,27.11,22.69
241,77.9,5.113,5.594,12.83,14.98,4.04,3.97,2.295,4.312,2.027,2.969,4.133
242,54.88,23.75,20.97,24.23,13.664,26.08,23.73,3.701,54.38,22.66,14.77,11.38
243,17.83,19.3,4.004,16.1,11.66,15.26,2.174,5.13,15.24,4.94,7.656,14.35
244,23.67,76.25,23.3,50.06,16.92,85.94,26.75,6.188,22.95,17.16,24.4,24.03
245,28.08,8.89,10.47,10.12,13.36,9.76,10.06,2.262,10.39,5.35,7.082,7.54
246,25.17,19.1,23.7,26.73,14.234,15.484,6.375,9.15,12.7,6.28,8.15,7.05
247,39.84,30.81,19.36,41.22,17.61,22.06,2.781,1.807,5.32,6.72,9.23,12.49
248,14.49,29.88,15.164,20.9,17.42,36.34,3.717,5.297,12.805,9.055,12.586,11.48
249,15.21,16.81,40.62,14.1,23.27,24.7,9.555,1.618,89.2,27.62,38.2,11.914
250,7.16,25.31,18.44,13.66,10.914,69.8,54.72,13.55,11.85,10.06,12.63,11.13
251,9.37,12.55,19.64,8.64,39.5,13.81,3.682,20.5,10.984,7.395,5.63,6.883
252,20.84,70.1,12.62,35.0,12.836,85.94,15.805,13.984,33.28,32.28,23.33,21.05
253,13.19,25.7,5.492,18.08,9.97,12.67,4.387,9.28,30.62,19.22,9.77,8.39
254,48.03,49.6,13.04,74.44,21.98,14.41,20.25,71.44,41.53,30.73,32.06,44.4
255,24.17,46.28,10.93,89.44,8.98,14.445,9.76,8.64,5.402,8.4,32.75,16.83
256,4.24,30.52,12.15,5.59,1.643,53.72,20.56,3.314,2.107,22.45,37.38,5.184
257,13.52,9.234,43.38,11.64,20.0,34.6,4.637,4.113,12.19,9.11,1.252,4.543
258,24.39,69.44,211.5,34.12,137.9,111.5,10.75,23.73,24.55,19.42,26.53,20.88
259,14.484,23.16,3.824,23.72,7.773,15.52,34.03,36.0,10.58,6.152,8.59,15.75
260,7.49,21.92,4.457,12.38,6.027,10.65,41.3,14.805,13.79,11.33,10.445,15.71
261,7.492,27.2,18.42,18.42,1.677,30.23,11.7,49.75,75.25,28.67,19.17,15.15
262,130.9,50.03,33.84,88.8,41.03,16.0,10.01,5.34,2.104,110.44,89.5,31.47
263,6.215,14.836,12.01,7.57,5.223,19.17,7.457,30.22,31.62,5.59,4.77,5.5
264,7.09,65.56,13.37,25.47,7.45,116.1,11.43,3.76,6.32,14.195,9.19,7.28
265,13.15,18.97,5.082,26.89,5.49,11.3,10.44,20.66,26.61,90.94,111.94,16.06
266,14.27,26.12,16.97,19.75,11.61,15.586,6.855,5.574,7.492,7.29,3.725,3.332
267,6.195,24.08,3.549,10.81,2.54,14.375,5.14,9.97,8.59,9.37,5.56,5.246
268,17.89,17.1,6.5,18.84,12.94,4.844,3.174,1.585,2.12,2.371,5.97,21.27
269,12.83,36.84,9.67,20.48,7.812,38.75,2.064,6.977,29.3,14.34,5.324,4.133
270,29.3,32.06,121.75,23.31,60.06,75.8,14.83,10.58,5.332,5.62,3.16,1.182
271,7.35,45.44,4.973,16.39,5.117,41.6,26.89,4.797,6.062,21.55,10.4,7.45
272,23.36,41.34,45.34,17.94,26.22,55.56,4.39,8.195,14.13,12.19,6.418,8.805
273,3.307,16.77,3.484,6.203,3.344,7.887,2.188,5.26,25.61,10.91,6.965,14.195
274,5.566,8.164,17.44,6.684,7.824,11.516,24.27,6.273,9.24,5.24,4.59,3.39
275,2.701,9.555,2.016,5.61,2.354,14.08,5.047,24.53,37.56,5.41,2.54,2.53
276,21.53,10.305,5.926,13.59,28.9,21.92,17.39,3.926,46.2,9.94,6.574,7.305
277,8.805,22.88,16.36,11.22,8.56,27.25,13.586,8.19,4.83,4.062,3.975,3.88
278,10.46,26.23,31.47,26.7,14.164,38.53,9.21,4.145,3.314,21.08,37.62,6.85
279,15.12,38.72,25.11,31.92,7.91,38.25,17.7,15.96,14.88,9.62,12.26,11.234
280,33.34,14.91,2.695,64.0,6.25,4.176,11.11,48.72,52.1,42.22,79.4,77.7
281,14.23,25.55,7.094,29.8,10.43,7.84,4.164,2.99,1.529,10.266,2.275,2.725
282,20.73,13.945,10.71,17.56,22.75,12.0,18.27,2.809,35.06,18.28,54.84,18.25
283,6.44,10.1,26.86,8.09,18.38,9.94,5.44,0.7617,15.89,2.693,12.945,2.943
284,9.79,18.7,11.36,13.766,8.016,3.842,9.125,7.883,5.637,3.105,3.639,5.31
285,38.0,41.84,4.32,50.84,10.76,9.85,4.723,3.594,3.613,5.26,109.9,16.3
286,20.75,121.6,52.66,65.5,30.28,147.5,13.27,8.266,11.57,16.61,12.28,15.37
287,6.902,26.56,34.3,16.64,4.246,55.6,4.19,15.05,38.88,12.51,6.234,9.15
288,13.32,9.97,109.56,13.0,17.22,7.293,2.797,19.17,11.01,3.533,1.983,6.047
289,20.89,28.52,71.5,15.195,30.48,45.12,3.352,7.953,5.957,6.79,9.86,13.94
290,22.42,20.53,5.96,24.62,7.203,15.81,6.145,1.505,7.477,4.008,3.072,2.875
291,2.592,33.88,40.4,12.81,7.117,55.34,33.8,15.836,35.7,16.92,18.17,13.484
292,17.48,23.1,81.06,15.84,17.48,36.06,4.82,29.66,15.62,7.934,6.863,13.71
293,79.2,4.125,6.953,18.88,16.28,2.838,7.816,4.59,7.85,18.27,13.98,19.88
294,6.684,25.64,45.62,13.02,8.914,77.9,4.723,23.95,19.66,12.42,13.984,18.25
295,19.44,6.785,3.988,13.42,6.277,3.637,3.084,5.312,3.232,3.06,4.49,3.906
296,21.28,107.25,11.805,61.44,5.363,84.25,14.02,12.23,16.95,26.34,34.9,42.6
297,8.89,24.67,19.06,12.875,9.68,31.28,6.387,8.695,3.578,2.73,4.543,14.555
298,2.145,4.57,7.41,1.083,4.848,43.12,2.39,4.73,6.71,1.593,1.42,1.108
299,18.27,23.89,24.97,20.23,10.875,21.81,20.25,8.43,8.02,9.41,16.28,16.02
300,14.92,42.9,7.605,29.0,6.652,16.44,14.95,10.984,26.72,6.5,15.21,24.72
301,7.297,33.5,4.117,13.84,4.89,19.52,5.14,13.87,19.7,20.61,17.02,7.207
302,25.73,7.305,6.99,12.81,36.06,4.527,6.305,10.07,12.74,10.16,8.74,6.465
303,8.96,61.7,7.574,27.2,4.58,64.2,7.79,10.04,40.78,180.6,32.8,10.1
304,8.94,13.34,6.156,14.336,6.1,5.613,26.3,13.24,4.047,4.473,1.514,4.973
305,23.33,49.56,16.56,34.56,15.43,59.22,7.258,15.16,23.17,22.19,29.69,20.19
306,3.604,9.26,4.973,3.646,3.686,12.164,2.506,4.875,1.786,3.387,2.184,2.197
307,5.42,39.44,21.62,22.12,7.188,37.97,21.23,55.44,10.836,29.55,3.705,5.547
308,23.77,13.555,94.8,17.45,28.05,12.67,25.33,24.33,23.45,15.68,7.324,7.617
309,11.12,57.3,56.1,27.12,10.72,79.56,9.45,24.19,1.84,2.656,1.774,4.73
310,1.773,31.55,38.8,9.52,9.125,81.0,3.664,1.659,10.43,7.707,7.387,16.3
311,33.9,29.39,7.188,35.6,25.8,9.87,15.9,30.11,15.586,16.12,10.21,14.45
312,11.69,1.36,21.39,6.207,18.62,4.074,1.372,5.633,9.055,2.049,2.818,2.271
313,8.58,61.75,96.0,27.72,25.2,138.9,18.11,37.12,38.44,20.06,8.016,9.32
314,12.67,29.97,60.8,17.89,23.06,25.94,3.482,15.76,28.38,17.5,10.89,9.625
315,4.21,6.168,5.363,4.87,6.258,10.06,3.023,23.89,23.05,3.105,1.981,3.625
316,5.83,16.08,16.92,8.12,5.086,19.44,4.02,3.996,2.615,3.955,4.367,7.715
317,13.24,26.06,13.3,17.06,13.19,18.75,20.78,3.549,2.016,3.629,6.77,3.766
318,10.69,23.62,1.602,11.82,4.164,7.016,4.07,30.89,10.53,9.586,8.79,15.266
319,3.672,39.12,20.67,13.68,7.73,24.55,4.51,29.47,31.77,6.344,7.71,10.26
320,31.47,19.16,8.37,38.44,10.85,10.18,22.6,5.906,5.79,35.53,29.06,11.63
321,6.477,5.05,9.53,5.71,10.26,8.695,1.328,11.71,7.504,2.564,2.395,2.62
322,6.03,21.19,8.49,11.47,3.902,14.04,11.9,4.55,5.227,7.637,6.473,6.91
323,6.992,7.504,2.611,8.45,2.682,5.504,1.97,5.71,10.98,3.693,2.244,1.465
324,3.521,11.11,20.17,11.46,2.668,10.875,4.97,4.52,3.75,10.71,1.032,3.322
325,8.44,19.17,6.234,11.8,4.61,58.62,1.693,25.39,17.86,27.31,15.66,22.19
326,15.45,46.62,16.86,28.42,8.06,27.39,12.72,18.61,39.6,14.414,9.5,8.12
327,5.285,19.0,9.836,9.93,2.43,50.97,2.812,6.188,3.633,3.752,6.473,2.4
328,6.055,22.95,22.73,11.4,3.467,89.56,2.957,5.824,19.53,8.63,5.426,6.188
329,29.97,15.23,10.1,19.31,36.75,11.336,8.79,7.91,16.36,8.875,8.0,12.516
330,9.76,22.75,12.98,15.25,4.234,23.61,3.938,7.0,4.99,2.904,14.0,21.97
331,32.12,58.38,36.8,42.78,15.82,49.16,16.12,33.94,42.72,36.84,46.78,37.7
332,38.53,43.22,28.19,42.2,16.19,41.03,2.604,23.16,18.48,18.58,10.68,17.14
333,14.4,12.63,46.03,10.84,60.6,19.55,4.543,4.312,6.23,11.49,12.07,12.8
334,16.6,34.2,21.83,20.1,14.16,24.89,6.895,7.438,10.766,17.44,11.6,9.47
335,3.965,9.484,10.42,2.443,15.72,14.85,34.28,44.9,9.52,1.704,2.705,1.248
336,1.813,8.26,13.34,3.674,2.697,34.47,4.773,8.734,12.84,14.07,3.469,1.736
337,8.97,61.0,1.837,28.12,3.256,2.04,0.596,0.5015,0.6724,5.453,80.56,6.207
338,10.29,9.15,12.61,7.496,56.47,16.7,1.074,23.14,23.12,19.69,3.889,3.225
339,61.22,6.625,2.0,15.43,12.766,3.707,86.0,7.34,9.91,4.79,6.664,7.574
340,12.38,38.22,11.67,25.7,20.16,30.55,21.4,12.195,12.96,15.91,10.39,11.25
341,15.29,15.5,16.88,14.984,13.266,17.72,8.375,7.05,5.934,8.18,8.93,9.38
342,4.54,5.754,5.027,4.7,6.008,6.285,9.59,35.28,5.99,24.56,5.684,5.023
343,33.25,38.6,40.75,39.2,16.88,31.56,52.5,4.812,4.254,4.82,10.12,6.445
344,15.055,38.38,67.8,28.55,49.44,42.88,8.555,13.18,19.23,15.39,12.93,14.75
345,15.74,38.2,9.99,154.5,6.637,15.055,12.195,5.402,3.562,12.336,78.6,48.1
346,22.95,53.3,92.9,57.84,24.2,49.94,13.33,3.803,2.715,3.645,6.668,18.36
347,33.34,68.3,17.2,46.56,27.39,26.64,11.234,4.53,6.734,5.957,13.72,16.94
348,19.53,9.31,17.0,15.71,19.61,12.71,2.953,4.867,8.61,12.805,7.344,5.96
349,7.348,13.99,3.238,25.4,2.71,3.943,7.87,22.48,18.69,13.65,7.938,5.13
350,18.8,17.56,46.4,17.34,22.73,22.9,7.613,9.18,6.54,10.234,16.34,35.84
351,38.6,26.0,43.47,30.62,51.25,39.1,6.03,8.4,16.89,14.99,17.28,17.44
352,33.4,44.8,46.4,41.62,40.0,50.47,12.16,7.062,13.125,28.61,18.67,14.22
353,15.086,31.25,8.71,22.3,9.1,41.06,2.777,1.221,5.16,16.4,10.625,9.76
354,8.53,9.375,31.48,7.715,10.5,38.72,5.355,18.19,7.754,6.523,11.336,6.164
355,15.87,20.78,12.5,15.02,18.97,11.586,56.5,5.477,12.01,13.63,7.73,7.83
356,19.3,19.08,84.56,16.22,22.53,29.53,5.71,6.234,7.84,4.9,4.758,9.29
357,13.99,21.44,59.75,15.69,21.98,34.28,19.47,7.04,19.62,12.35,7.164,8.36
358,20.05,34.7,49.62,22.75,23.34,33.62,15.86,19.67,27.94,23.36,16.58,15.9
359,12.01,14.305,4.125,15.23,8.5,12.89,2.47,4.938,8.67,8.97,6.07,9.25
360,16.52,41.8,48.94,32.1,9.17,46.9,6.016,6.05,8.68,13.41,12.63,11.17
361,12.48,11.9,10.305,10.945,63.03,10.555,21.55,5.13,3.832,3.672,2.832,3.33
362,38.0,21.64,22.47,29.42,35.38,15.17,5.54,2.732,17.67,36.4,23.48,12.83
363,10.74,13.74,16.81,15.68,39.66,14.4,6.24,2.895,7.13,3.062,2.604,3.133
364,32.22,10.21,17.78,14.7,61.9,9.164,3.744,2.48,18.84,2.508,1.989,1.442
365,38.8,24.31,20.61,24.45,44.5,20.66,2.334,3.32,13.61,11.35,8.26,7.44
366,31.9,23.14,15.4,26.9,12.836,19.27,7.082,3.361,3.842,4.41,5.363,7.047
367,20.06,32.8,12.1,22.77,12.945,62.47,3.06,13.125,15.36,14.99,9.81,8.125
368,9.664,86.75,4.324,37.22,2.494,30.03,11.73,50.1,28.64,34.4,39.78,53.88
369,13.12,7.555,55.2,13.43,18.23,6.945,9.65,41.34,11.59,7.83,8.45,8.41
370,20.34,9.2,6.387,14.24,3.42,7.113,21.58,7.105,8.02,5.35,7.785,13.26
371,31.42,61.4,64.25,26.78,58.75,71.9,8.016,11.05,12.836,5.793,8.13,10.875
372,35.44,9.01,15.5,13.26,49.5,11.055,4.03,6.055,5.465,6.055,4.008,21.89
373,7.273,18.95,66.94,11.39,8.44,63.34,5.316,19.98,13.47,10.59,9.336,18.8
374,50.84,16.64,15.234,25.22,19.4,12.43,4.62,3.275,12.625,13.16,5.656,6.684
375,12.23,8.32,18.34,7.47,31.42,5.13,13.64,3.89,20.62,6.137,4.99,4.6
376,22.2,4.496,2.572,11.48,10.15,5.613,5.49,5.242,12.266,14.234,7.84,4.246
377,37.2,21.33,12.63,35.78,6.61,16.72,8.81,2.322,13.016,33.0,14.164,10.82
378,15.05,7.496,25.39,8.41,68.1,11.29,7.727,25.11,6.812,4.453,4.906,5.594
379,2.676,117.0,2.941,19.03,2.416,12.48,2.076,5.37,5.2,7.02,5.016,11.05
380,29.67,39.97,7.992,44.78,21.47,7.902,22.11,20.92,26.12,28.34,18.78,20.5
381,51.44,13.44,23.34,23.81,27.9,15.01,67.2,14.97,11.47,9.98,6.113,11.18
382,4.54,9.4,11.75,3.828,5.547,19.69,3.004,3.754,3.537,3.0,1.68,0.818
383,4.113,11.445,3.688,5.887,3.365,8.36,4.062,8.18,21.31,20.75,2.111,2.514
384,6.793,10.3,5.594,19.72,6.01,6.97,2.277,1.209,1.365,2.416,21.12,68.8
385,7.61,41.06,8.55,24.47,7.434,24.38,14.47,16.27,26.4,2.012,1.444,1.399
386,6.047,3.432,18.0,5.105,18.0,2.822,5.69,1.618,16.0,4.035,2.795,2.967
387,11.05,13.05,44.12,13.86,14.984,26.38,4.895,24.83,55.16,23.78,5.0,6.348
388,20.67,24.28,47.53,20.62,28.33,23.94,5.184,9.17,9.66,9.39,8.88,9.55
389,22.7,16.8,10.12,20.83,57.03,9.375,11.06,13.23,8.95,7.56,7.703,10.54
390,35.97,23.97,17.58,26.25,69.06,15.45,1.923,8.84,24.28,12.78,9.58,11.945
391,14.99,7.168,27.3,8.8,35.38,8.15,5.254,8.47,8.984,3.73,5.727,3.79
392,6.1,5.53,23.78,4.445,11.65,11.31,3.953,9.086,12.23,3.236,3.055,2.764
393,75.0,12.97,5.258,37.6,24.98,6.387,6.367,2.705,9.266,4.004,3.225,5.934
394,25.1,13.72,11.97,8.73,9.75,11.516,3.287,1.194,3.36,5.484,3.846,17.97
395,16.77,10.29,8.516,12.15,17.98,6.79,9.72,2.238,6.824,3.453,3.04,4.316
396,14.39,17.14,39.2,17.22,33.0,28.47,1.804,2.018,73.6,11.16,6.984,4.727
397,34.66,16.73,4.867,22.33,22.75,9.15,5.473,11.92,8.58,6.117,7.023,8.016
398,3.537,12.87,9.81,4.984,4.934,26.19,6.25,4.13,3.334,2.045,1.478,3.508
399,25.2,22.73,15.0,16.86,27.6,19.16,18.52,8.06,18.73,18.16,9.125,7.09
400,21.62,12.59,15.805,17.42,42.62,9.77,30.08,4.516,11.945,13.664,8.625,10.28
401,16.25,14.37,38.53,14.83,14.22,16.06,2.46,4.176,18.62,8.14,4.39,4.555
402,26.25,3.7,8.12,9.336,30.12,8.58,5.254,8.04,22.25,6.555,5.234,5.48
403,34.9,28.22,18.1,27.34,26.69,5.81,5.98,12.45,11.38,10.24,9.3,11.04
404,12.54,23.11,19.17,18.56,9.26,21.73,5.02,3.674,8.766,7.902,6.496,9.26
405,23.6,19.2,22.98,26.61,15.98,25.81,37.9,19.48,15.836,14.22,13.266,16.23
406,23.27,62.16,18.55,40.66,20.52,78.44,48.94,8.38,13.445,13.7,8.31,14.56
407,13.53,30.28,5.824,18.17,7.89,22.72,5.824,26.84,10.445,4.7,6.55,10.57
408,45.75,97.56,98.0,36.25,34.5,99.3,5.664,7.57,8.24,13.22,16.66,20.81
409,12.41,17.03,46.0,15.21,7.168,37.22,6.06,17.16,12.38,17.55,13.805,14.055
410,16.14,13.32,19.22,12.234,17.83,31.12,9.41,14.414,12.26,8.33,7.543,7.48
411,7.395,16.44,7.36,10.17,4.98,48.8,9.2,7.242,3.32,5.895,8.766,10.19
412,4.65,17.19,7.13,17.08,5.8,10.87,18.73,41.34,6.41,6.785,4.414,7.4
413,2.336,11.89,1.185,4.766,1.036,7.43,5.652,8.25,11.17,4.098,5.945,3.572
414,36.62,12.33,40.25,25.28,76.1,4.742,23.36,10.25,8.74,5.14,3.564,6.344
415,31.34,10.664,44.25,19.53,43.97,22.92,9.05,9.44,19.55,9.9,5.63,3.404
416,9.375,24.78,18.67,15.09,5.562,28.86,11.07,14.945,21.5,4.113,8.25,10.31
417,26.34,44.53,10.664,43.66,12.39,25.55,1.664,4.457,44.22,27.02,25.02,25.52
418,13.78,57.3,12.766,23.14,8.695,5.7,13.25,9.01,9.52,10.164,10.27,13.49
419,13.16,2.008,19.8,4.117,33.16,4.87,3.047,3.752,4.676,9.41,1.365,1.433
420,22.84,27.2,76.6,22.33,21.38,56.9,1.981,8.79,15.37,1.335,7.05,14.77
421,5.9,25.7,4.44,10.46,3.979,14.805,34.5,5.477,6.605,8.08,52.0,9.61
422,16.47,31.84,19.28,25.92,19.56,22.75,11.41,5.863,10.61,15.88,3.434,8.1
423,10.64,16.92,34.3,16.64,5.88,20.83,1.92,18.7,12.09,5.723,10.61,9.33
424,6.957,42.9,30.67,26.27,7.383,60.4,21.69,3.79,7.207,8.62,12.43,14.15
425,18.1,9.57,16.31,8.414,21.02,14.1,10.55,3.98,3.332,1.907,4.234,3.816
426,7.793,13.195,24.5,10.445,9.55,27.83,8.03,7.43,10.27,8.23,24.94,9.14
427,21.5,23.02,12.68,21.86,21.3,10.43,25.19,24.69,22.05,23.56,20.47,28.61
428,5.92,5.25,18.75,6.574,8.05,16.86,0.826,3.283,5.07,2.467,1.089,2.062
429,16.42,28.64,1.921,21.14,7.28,10.73,1.993,1.532,30.5,17.56,9.34,7.766
430,15.14,14.164,17.72,12.24,56.22,14.766,6.227,4.594,18.11,4.785,6.027,5.773
431,10.47,11.875,24.05,9.17,31.62,12.85,9.42,4.375,13.625,8.05,7.605,6.4
432,3.986,15.914,6.37,6.703,4.06,17.08,3.848,9.445,11.17,12.586,4.586,3.207
433,12.58,3.662,10.07,4.246,17.9,3.773,2.32,5.26,3.406,2.69,4.9,6.59
434,7.43,14.97,8.9,9.57,5.51,33.6,42.0,19.56,7.99,6.305,4.902,4.152
435,12.625,59.8,8.14,27.42,8.664,62.62,3.787,7.793,21.64,24.2,10.8,6.293
436,18.42,23.2,25.92,17.23,10.74,26.61,12.414,13.08,12.01,8.69,9.13,11.01
437,15.02,31.92,41.3,14.164,32.12,38.84,9.41,4.496,15.26,8.305,6.363,10.09
438,7.305,17.03,11.09,9.695,20.55,21.78,9.664,13.11,7.594,10.195,8.95,7.83
439,6.473,16.89,36.5,10.92,9.266,29.4,17.69,21.33,23.25,12.1,12.09,12.18
440,20.0,6.914,15.516,9.49,36.9,9.33,3.303,3.521,2.771,4.367,6.043,7.887
441,57.06,115.25,137.5,95.8,64.06,124.2,4.414,14.35,24.19,24.89,18.73,26.98
442,6.145,13.164,28.39,8.766,6.676,21.0,5.527,7.332,16.14,19.55,8.516,8.79
443,24.03,29.88,23.64,27.38,62.97,28.53,4.746,6.914,11.68,7.125,22.16,26.19
444,10.945,55.34,9.88,27.67,8.266,46.2,7.49,7.797,12.664,9.66,7.06,12.734
445,19.38,63.8,22.28,34.62,10.1,28.92,5.477,7.473,22.42,28.45,22.38,25.25
446,64.6,23.62,5.184,46.16,33.62,5.54,37.7,4.113,6.332,7.496,12.625,27.17
447,43.8,42.88,22.94,56.44,17.67,24.22,22.94,10.305,10.05,12.41,17.03,18.6
448,12.12,36.7,17.33,10.08,15.68,54.84,8.14,2.299,4.99,6.18,9.13,10.99
449,12.79,31.27,68.3,23.62,29.23,43.0,2.281,5.46,12.34,24.5,8.26,9.65
450,10.05,17.03,6.63,17.47,6.617,14.99,3.658,4.285,5.82,2.453,3.08,10.82
451,10.336,46.66,40.47,7.39,23.31,48.2,12.16,6.984,7.3,33.16,11.84,6.086
452,30.42,25.17,26.5,23.98,28.2,39.6,10.62,10.56,8.914,14.38,16.84,12.05
453,32.66,27.23,23.11,30.42,36.78,27.88,1.944,2.828,5.137,10.27,12.734,16.16
454,6.44,5.902,5.613,29.22,5.883,4.508,15.08,10.98,19.48,66.94,3.23,2.441
455,7.945,45.8,27.48,18.61,2.305,84.06,4.332,8.98,10.58,9.72,5.89,3.889
456,7.945,45.8,27.48,18.61,2.305,84.06,4.332,8.98,10.58,9.72,5.89,3.889
457,9.99,19.4,26.5,14.73,16.61,24.1,1.621,2.15,5.68,11.02,7.484,7.77
458,6.883,8.15,22.22,6.4,12.54,9.38,4.246,21.03,15.96,11.25,3.318,19.88
459,6.883,8.15,22.22,6.4,12.54,9.38,4.246,21.03,15.96,11.25,3.318,19.88
460,3.045,18.22,5.24,4.223,3.545,11.016,5.83,76.25,30.28,0.841,0.7944,0.972
461,7.074,25.56,44.53,15.08,5.914,42.47,3.596,6.12,20.81,8.94,12.17,17.5
462,11.234,33.0,14.32,18.23,4.88,42.84,3.252,7.74,11.68,13.48,25.36,34.7
463,34.38,18.03,15.44,30.95,39.94,7.41,49.38,15.305,7.92,15.35,17.52,14.164
464,14.375,34.56,40.84,28.7,18.16,43.8,2.979,7.996,37.16,27.42,29.64,21.48
465,11.89,13.95,24.06,8.99,20.27,15.78,6.92,5.07,9.88,7.13,9.79,7.035
466,13.56,42.7,56.25,24.88,15.805,55.5,10.914,17.2,26.02,22.61,19.64,20.33
467,7.695,6.605,18.06,5.41,30.8,7.957,3.234,22.45,31.44,6.965,3.395,3.152
468,17.39,47.4,61.7,24.84,13.65,68.1,38.2,8.695,5.836,7.723,20.6,13.98
469,10.38,15.24,26.73,13.42,41.47,18.75,12.56,6.242,9.51,7.574,5.145,6.766
470,9.39,18.56,33.3,13.02,6.758,40.72,6.22,4.48,7.445,6.676,9.03,22.19
471,5.14,28.11,7.418,12.125,3.684,29.88,7.57,20.28,20.27,11.64,14.32,15.305
472,11.914,30.23,41.75,13.52,37.72,45.12,24.16,16.12,11.41,8.27,7.273,13.1
473,20.53,25.9,56.47,21.45,34.0,58.25,43.44,3.287,5.016,6.37,7.816,11.484
474,16.33,37.0,20.42,31.42,20.45,27.98,16.64,29.33,2.998,9.12,6.836,7.66
475,13.695,3.988,6.074,6.844,16.34,2.455,5.312,9.484,12.44,4.7,1.593,1.329
476,13.086,1.318,0.9106,2.635,1.229,1.252,9.65,12.445,4.246,0.792,2.938,3.3
477,23.22,7.055,3.67,9.945,2.072,5.562,2.348,2.246,4.758,15.9,11.79,16.36
478,15.305,39.2,8.6,30.14,9.664,12.36,11.63,4.312,7.195,22.1,17.94,20.12
479,7.707,42.34,3.584,17.72,3.156,26.97,13.33,7.88,7.2,10.516,8.695,11.195
480,5.277,14.68,34.22,8.305,9.14,35.28,12.33,29.11,18.08,11.04,4.215,3.83
481,5.32,11.44,4.383,19.38,6.324,5.566,22.67,22.78,54.22,15.42,3.7,2.879
482,22.36,54.2,61.22,32.97,14.15,61.97,12.57,3.05,4.062,14.25,12.23,29.61
483,7.098,8.36,5.32,6.703,4.457,6.75,5.363,3.133,6.168,1.841,2.633,1.557
484,27.0,41.56,11.6,34.84,16.62,37.2,15.82,39.97,40.47,16.14,21.8,20.25
485,14.086,29.72,5.53,17.5,8.6,20.34,6.086,7.08,9.234,23.17,41.5,40.6
486,31.6,123.44,9.46,65.6,14.09,79.8,2.447,9.09,13.77,8.54,9.44,18.8
487,10.51,12.97,1.075,12.984,5.188,4.977,0.808,2.613,12.37,7.484,5.953,11.04
488,11.62,16.53,2.516,30.39,4.6,5.53,2.35,1.856,5.168,14.195,28.25,13.88
489,34.53,13.92,44.66,21.97,65.7,16.31,7.84,8.28,20.98,14.97,15.1,20.9
490,6.273,11.766,38.7,7.547,9.875,13.75,3.354,1.595,2.518,13.42,2.893,3.48
491,66.7,45.03,19.6,66.44,87.94,19.69,1.847,4.816,8.48,10.5,15.53,13.875
492,6.766,22.58,50.9,15.39,20.92,32.53,2.354,28.84,7.832,6.117,5.96,14.84
493,13.57,43.9,9.32,18.83,11.54,55.3,14.42,9.66,8.87,10.54,8.37,7.36
494,28.52,16.45,51.62,18.5,48.25,17.62,8.43,11.984,12.72,7.414,3.041,6.89
495,6.34,15.68,6.848,7.91,2.832,17.95,3.36,3.615,4.27,4.816,4.43,2.184
496,7.047,29.69,10.77,16.55,6.133,48.3,29.52,22.58,9.92,5.566,4.957,5.39
497,9.72,9.76,5.645,20.7,5.848,6.418,9.94,3.758,2.646,2.76,6.95,14.695
498,5.016,52.2,12.516,15.48,5.56,56.5,3.205,9.2,4.63,3.334,2.266,5.008
499,26.55,16.03,25.31,32.7,7.63,30.84,17.89,27.66,138.6,94.6,42.38,22.58
500,8.35,6.793,14.9,8.34,9.03,9.336,25.19,6.566,12.8,5.16,1.767,3.87
501,8.81,37.28,5.727,24.78,2.371,15.7,17.89,23.03,2.96,1.788,1.901,5.14
502,16.03,12.71,19.78,14.69,11.0,11.22,21.44,68.25,32.44,14.24,12.77,15.78
503,23.53,6.965,9.27,13.09,37.78,5.723,3.057,4.97,7.387,6.15,6.406,8.01
504,11.38,9.12,18.98,7.17,26.6,12.94,9.15,2.488,4.65,2.977,3.139,2.7
505,22.69,11.16,10.28,20.5,41.84,10.625,41.78,10.57,10.63,7.31,3.049,3.059
506,45.56,22.39,19.44,22.4,18.61,20.61,7.098,42.9,11.41,16.44,9.87,14.375
507,12.42,10.25,7.29,16.39,7.113,6.316,1.674,3.354,5.0,1.68,9.39,11.336
508,17.08,74.75,27.28,31.05,7.848,53.53,2.816,9.94,11.4,11.12,17.98,22.11
509,5.305,9.125,5.062,16.33,4.688,5.984,2.477,3.104,2.303,1.645,6.977,23.92
510,8.21,9.016,8.28,9.125,5.2,11.34,4.242,10.54,5.1,2.525,4.184,3.75
511,27.73,50.78,28.53,44.44,15.55,50.6,12.39,7.363,21.61,36.06,2.916,4.113
512,6.773,2.062,20.28,3.984,4.402,27.4,3.426,6.67,1.627,1.829,0.609,0.931
513,16.39,34.47,11.4,7.2,13.21,8.25,11.805,32.38,33.88,40.94,26.33,28.9
514,15.26,153.8,25.81,48.03,9.92,188.5,16.73,105.9,54.56,68.9,56.28,59.1
515,1.863,2.168,6.16,1.32,1.961,6.496,3.656,2.982,24.05,13.195,1.174,1.072
516,20.11,14.305,15.91,45.28,15.9,15.5,7.82,5.227,5.223,8.266,21.42,12.14
517,3.57,14.47,15.56,8.12,6.906,25.75,6.58,9.76,12.94,19.1,29.08,18.1
518,10.3,23.95,7.934,24.7,7.168,8.66,2.887,3.809,1.816,0.8765,6.18,13.02
519,9.836,20.14,4.95,46.0,4.133,3.469,10.51,4.36,8.86,12.88,14.4,19.14
520,12.88,10.47,6.92,8.26,7.023,10.13,13.39,5.367,14.53,12.1,5.566,6.523
521,14.875,59.0,44.0,22.14,10.94,89.2,1.084,3.65,2.664,19.5,9.055,9.15
522,17.27,14.15,26.0,8.76,55.6,15.87,19.56,8.336,7.734,8.664,8.62,6.887
523,6.316,75.0,73.06,42.94,14.375,93.6,7.54,3.986,17.53,3.775,11.18,26.67
524,18.56,57.47,65.7,26.67,12.38,99.0,1.737,1.287,6.758,24.6,8.586,13.01
525,21.4,21.08,17.27,24.4,16.86,15.414,4.93,2.332,3.062,8.02,9.2,5.375
526,7.906,12.62,6.953,16.58,5.027,4.234,3.617,6.93,8.22,4.125,6.473,6.582
527,32.5,14.9,5.957,52.62,6.824,7.914,116.94,39.78,38.7,34.8,36.6,61.75
528,9.7,6.5,6.426,7.64,6.01,7.0,3.832,5.094,8.086,5.38,4.453,4.082
529,26.39,6.51,7.28,32.16,11.945,6.84,25.42,11.3,5.543,1.507,7.914,20.33
530,13.47,39.47,21.84,29.38,9.164,36.25,3.885,4.477,7.336,13.57,21.12,39.62
531,24.34,30.33,9.37,237.0,12.59,11.96,69.9,53.78,34.16,10.92,18.34,22.72
532,8.99,20.84,22.45,10.95,7.78,55.16,4.207,7.44,9.32,15.34,10.55,11.516
533,9.96,3.2,26.2,6.9,17.05,12.445,5.13,7.117,7.184,4.406,1.119,1.163
534,19.05,66.94,37.3,36.66,34.9,110.94,19.69,14.914,25.83,18.77,16.56,3.732
535,8.484,11.43,4.45,17.52,2.13,5.87,3.713,1.838,3.582,1.584,3.297,5.473
536,6.586,34.78,16.38,8.62,7.668,48.25,1.856,7.69,7.92,8.484,1.415,3.617
537,7.965,13.14,37.25,11.69,15.99,14.81,12.125,10.625,7.918,7.05,3.154,6.316
538,5.11,40.25,67.06,16.66,23.66,55.28,13.96,15.65,11.18,20.06,22.97,27.58
539,4.414,16.98,8.06,7.723,6.29,12.12,4.207,11.055,3.0,3.297,1.19,2.184
540,9.13,23.8,4.402,13.63,6.23,8.11,4.395,8.46,4.41,3.03,5.2,4.066
541,12.92,31.34,38.16,26.42,9.43,33.2,4.117,6.76,10.266,10.09,5.117,7.625
542,13.54,19.2,68.3,15.26,14.734,39.75,3.674,6.855,13.88,13.55,11.38,16.19
543,20.98,80.56,73.75,31.02,30.25,136.8,20.19,2.377,7.82,8.24,0.977,1.804
544,7.45,41.25,16.6,14.88,3.756,54.66,1.262,2.879,6.715,27.19,2.553,5.84
545,13.6,65.6,9.38,34.03,3.87,48.34,3.559,5.695,7.23,7.516,11.445,19.45
546,79.4,35.72,27.64,76.75,60.94,13.086,46.47,10.5,3.852,3.965,67.9,41.0
547,13.61,30.3,16.34,25.2,0.934,33.84,2.791,8.68,10.625,14.45,11.766,7.992
548,29.03,37.22,82.4,35.34,63.44,52.3,5.3,4.68,3.686,7.07,7.58,12.18
549,67.8,36.94,86.1,48.2,88.3,48.12,8.76,7.94,6.18,10.19,48.16,41.62
550,6.098,10.37,1.586,14.1,3.008,3.203,3.314,3.668,5.977,23.4,4.05,4.387
551,56.44,40.88,4.566,70.1,5.434,15.16,6.043,6.44,4.87,7.77,26.9,34.56
552,10.11,21.05,40.3,14.6,12.58,32.1,19.11,9.38,7.633,5.74,4.777,6.176
553,16.56,67.0,49.94,41.88,6.324,75.94,9.93,10.734,25.31,21.6,25.47,27.2
554,40.47,30.81,50.78,44.88,36.97,68.56,45.7,46.53,48.9,44.1,31.2,44.44
555,13.695,95.3,9.375,33.66,2.828,163.5,25.77,10.81,31.34,60.4,16.97,27.8
556,27.11,2.795,16.22,8.27,33.8,7.023,16.33,7.01,16.25,15.016,3.262,4.656
557,7.59,36.78,16.12,15.4,2.227,65.2,4.41,8.48,9.24,9.58,6.48,7.887
558,9.23,50.3,1.653,20.44,5.37,50.06,3.19,13.45,26.45,13.305,9.77,14.25
559,10.8,24.72,127.6,17.95,3.957,36.06,2.004,15.88,52.62,19.17,5.52,6.55
560,116.75,7.566,80.25,27.53,156.4,33.56,5.324,11.99,33.78,9.734,9.1,15.72
561,7.734,12.45,32.22,7.91,12.914,19.92,17.4,11.125,11.67,7.88,2.295,3.305
562,17.8,50.25,50.53,49.3,22.58,94.94,4.53,1.231,4.113,23.39,21.08,30.48
563,16.92,11.17,18.67,10.484,34.75,12.96,15.62,11.37,23.9,60.66,7.504,3.72
564,6.496,8.05,12.04,5.53,20.98,9.695,6.523,11.375,23.4,4.895,5.996,5.965
565,5.89,18.5,21.44,7.094,11.31,17.2,6.582,4.54,8.66,4.312,3.705,7.01
566,4.777,12.63,4.906,3.66,5.42,4.562,2.877,2.418,3.623,14.03,21.38,21.92
567,3.264,21.78,5.895,4.67,2.309,44.62,23.42,23.11,3.713,1.758,1.785,4.727
568,4.95,9.46,7.38,7.59,5.297,4.652,9.4,4.668,3.068,2.602,2.238,3.385
569,15.81,3.748,10.766,12.74,15.81,4.863,3.764,0.804,4.13,6.664,3.37,2.516
570,29.78,27.62,18.31,26.69,24.98,27.3,8.445,7.008,4.035,4.56,18.23,17.05
571,8.68,27.08,19.0,15.29,4.38,44.6,56.97,5.742,10.29,29.66,77.1,41.28
572,20.23,7.98,3.086,15.5,2.32,4.477,44.3,59.94,62.28,10.88,6.44,12.38
573,6.84,38.62,4.945,14.19,2.572,21.7,6.254,7.46,12.31,26.42,15.48,11.77
574,25.0,20.22,8.875,40.66,16.53,7.15,76.06,83.6,50.44,14.516,23.81,47.16
575,6.145,20.69,80.4,11.87,13.055,36.94,4.156,5.848,26.48,5.402,5.664,9.68
576,24.1,26.23,2.389,41.28,7.11,6.457,18.97,8.305,13.56,11.2,17.44,31.62
577,21.66,14.11,7.117,16.67,8.984,8.914,20.1,8.15,14.01,9.15,9.41,8.69
578,10.086,11.37,37.72,15.52,23.19,36.03,3.795,3.643,2.4,9.85,7.246,9.02
579,24.23,12.375,11.914,15.484,27.03,10.77,2.48,6.836,16.38,5.08,5.14,4.957
580,21.88,111.9,7.23,50.62,10.85,10.625,12.44,3.207,1.889,50.22,4.992,5.47
581,31.62,23.62,15.46,22.0,40.66,19.77,27.66,10.21,23.44,9.45,6.805,6.91
582,35.06,15.21,14.22,25.9,21.28,10.164,7.395,3.486,6.277,4.457,40.28,14.73
583,31.69,61.9,8.09,49.2,17.83,41.8,10.2,16.8,16.38,10.734,10.234,14.83
584,6.82,14.48,6.89,9.086,5.695,40.22,4.168,1.788,1.846,4.094,3.473,7.543
585,14.695,25.47,63.94,17.4,35.22,58.06,44.75,11.42,4.2,2.475,3.521,7.137
586,5.33,14.27,10.37,5.22,6.973,35.16,6.344,8.65,5.68,14.59,5.77,5.87
587,22.03,9.19,23.73,13.51,27.19,4.363,11.41,52.38,15.11,6.89,4.836,3.154
588,9.15,14.06,18.98,10.1,11.27,27.12,6.277,12.85,18.47,17.23,13.74,11.18
589,9.79,20.0,74.44,12.07,17.08,37.97,3.008,13.734,27.34,9.21,9.51,7.125
590,37.22,15.305,48.12,20.89,90.56,14.4,17.94,13.49,11.11,10.0,6.21,8.85
591,27.06,46.97,48.25,31.8,28.28,56.2,43.97,59.97,27.16,13.68,11.04,13.55
592,2.924,4.86,7.47,1.236,4.926,6.48,8.5,5.387,4.867,1.295,2.074,1.722
593,67.2,28.47,6.97,61.16,20.36,14.305,15.1,108.6,1.922,12.9,16.38,15.87
594,14.016,28.44,12.266,23.7,11.16,33.1,2.309,8.266,16.02,10.26,14.98,18.97
595,14.48,12.96,87.25,13.22,20.02,14.17,3.605,1.844,7.79,7.574,8.5,12.07
596,7.31,11.65,36.4,8.7,8.695,15.04,1.205,8.2,14.586,4.645,3.82,7.414
597,26.28,6.684,4.77,35.88,8.87,3.936,10.305,2.963,3.762,5.1,22.78,30.14
598,16.88,12.97,5.887,19.73,11.61,8.984,12.19,4.742,5.52,5.508,5.07,7.305
599,11.734,82.1,20.55,79.9,13.24,62.16,12.336,140.2,73.9,57.06,26.75,16.62
600,8.92,35.06,42.84,10.95,17.42,93.06,35.38,23.47,42.34,22.1,26.64,24.61
601,8.96,14.55,20.2,11.266,9.89,34.7,8.02,5.16,8.44,18.9,6.74,4.457
602,10.31,159.9,3.475,46.78,3.887,18.22,34.4,51.66,9.375,8.984,12.49,15.02
603,51.5,80.4,52.97,58.7,46.03,75.2,44.4,9.42,33.53,42.78,48.16,66.1
604,13.41,13.1,15.77,10.94,23.39,18.67,8.58,3.451,6.24,8.25,5.26,6.555
605,15.23,153.1,4.664,53.44,8.55,66.0,8.69,62.0,17.2,28.9,25.92,25.92
606,15.664,7.33,6.32,19.84,6.836,4.715,17.61,16.25,12.16,14.6,4.645,12.62
607,20.8,72.8,47.6,49.62,36.38,63.66,42.06,26.2,19.38,8.03,12.31,31.16
608,11.96,3.96,6.344,7.6,13.73,3.941,5.13,4.434,9.39,2.467,3.354,3.459
609,13.2,126.44,3.867,26.95,7.63,7.465,9.67,4.34,5.04,9.766,13.88,120.94
610,15.22,35.16,28.0,27.58,8.16,40.25,2.602,5.54,7.957,6.754,9.63,9.59
611,18.05,43.84,26.95,24.28,9.7,43.03,54.47,5.93,2.363,4.117,16.5,13.16
612,8.18,4.984,5.582,6.69,6.16,7.992,8.71,3.594,4.824,1.665,2.453,0.941
613,19.42,11.11,9.12,19.11,12.9,13.07,6.91,3.123,2.736,2.332,4.918,24.94
614,24.69,88.8,13.06,40.12,13.84,52.1,27.02,11.5,12.55,10.97,12.06,7.355
615,6.02,56.12,2.285,14.42,2.586,5.19,4.74,9.14,9.836,8.26,5.094,5.047
616,10.82,19.5,16.31,15.55,9.86,32.84,9.15,2.691,38.25,62.53,13.51,13.92
617,14.63,31.66,2.504,39.94,4.137,4.363,1.95,1.638,3.217,32.97,29.48,13.17
618,17.89,26.6,45.1,23.1,24.64,33.7,40.16,10.266,18.17,24.94,20.77,30.08
619,8.125,10.336,5.336,7.902,5.375,31.03,2.627,16.92,17.56,5.93,7.316,4.246
620,27.7,72.4,88.44,43.16,9.16,139.4,4.793,6.023,11.85,14.55,24.6,62.38
621,31.88,34.7,101.94,31.61,40.34,48.62,8.63,8.7,19.25,14.63,7.152,12.53
622,5.01,41.44,21.27,47.12,14.336,30.05,3.785,4.508,15.414,2.969,2.004,9.12
623,3.883,8.45,13.38,3.277,7.598,21.2,4.074,11.29,6.117,3.35,2.44,3.928
624,5.77,23.19,4.992,9.02,4.676,12.016,16.8,5.62,7.926,6.844,6.707,4.996
625,43.34,87.25,92.4,56.25,56.1,105.75,12.7,6.92,23.69,37.88,37.8,35.6
626,26.94,43.78,35.3,17.42,29.97,69.44,7.844,2.887,3.93,15.15,6.668,5.42
627,42.53,51.72,1.629,49.16,2.75,12.85,48.1,76.6,63.12,52.9,40.72,43.84
628,5.992,16.14,15.37,6.973,8.26,32.2,7.55,8.81,14.33,8.98,10.09,9.11
629,7.504,3.482,13.586,3.28,13.86,5.234,1.972,4.164,7.715,1.507,3.62,11.516
630,25.77,29.2,10.94,34.38,4.742,17.61,13.445,4.27,15.58,10.11,20.25,14.945
631,6.945,23.2,42.53,14.14,69.6,38.44,8.734,30.7,31.38,7.867,6.047,4.234
632,24.98,18.7,6.953,23.2,8.516,15.16,22.17,14.305,9.08,13.1,13.45,32.88
633,5.367,19.81,15.86,7.945,6.816,24.55,3.633,3.402,3.758,2.406,1.753,7.69
634,3.957,36.9,26.34,18.6,10.766,28.58,2.674,8.28,9.33,6.617,1.74,1.145
635,20.56,64.4,13.33,26.8,18.77,11.69,12.63,7.273,5.168,6.64,12.73,2.771
636,20.45,23.02,7.652,53.75,11.76,7.44,17.92,28.8,11.05,37.7,25.66,2.344
637,18.8,13.02,7.062,14.74,13.6,4.652,11.04,6.04,6.395,4.363,4.117,4.51
638,13.6,41.56,62.62,17.16,55.62,55.8,10.07,3.848,6.76,8.06,8.09,11.62
639,37.94,12.266,3.787,18.62,10.78,11.875,10.72,2.762,16.9,9.29,6.977,8.24
640,12.02,56.6,17.61,28.66,4.375,78.94,6.61,17.1,26.69,33.94,28.67,16.94
641,12.15,14.766,21.42,12.59,11.836,16.69,5.66,11.72,20.86,12.03,11.47,10.21
642,12.016,13.53,26.75,13.92,12.35,29.6,5.254,6.848,3.725,2.512,5.18,7.043
643,39.28,25.27,23.52,28.84,85.2,26.66,1.651,6.086,13.58,13.984,14.77,13.69
644,4.555,4.68,9.11,3.97,10.1,3.39,3.492,2.852,6.4,2.018,1.176,2.059
645,10.305,5.066,2.23,40.25,3.17,2.049,7.44,2.71,1.12,2.68,8.445,9.78
646,26.39,8.6,4.684,8.6,5.406,6.113,7.453,3.576,6.203,9.09,11.54,6.06
647,14.65,60.94,15.29,36.88,8.055,60.06,13.96,43.62,11.195,15.07,14.22,14.64
648,14.68,60.97,6.836,33.0,5.39,70.6,3.715,7.1,24.36,19.3,16.64,11.414
649,19.62,30.73,32.7,21.88,18.56,20.92,37.3,5.023,3.285,8.04,14.22,22.16
650,81.06,26.6,22.25,44.66,15.055,21.53,58.2,3.611,2.871,11.28,26.11,40.75
651,23.62,97.2,24.48,101.75,13.16,45.62,13.95,19.39,28.19,2.309,1.372,3.932
652,6.395,26.05,11.5,7.617,9.27,15.16,3.84,2.07,5.105,4.234,4.477,8.15
653,20.48,25.23,42.28,18.28,67.6,30.08,3.705,17.23,13.16,9.52,14.69,17.8
654,12.85,23.16,9.68,12.83,4.816,18.98,6.184,19.72,29.02,7.07,5.293,6.973
655,6.426,13.22,15.484,6.145,10.88,37.2,9.39,3.936,6.055,11.31,2.422,3.531
656,20.9,28.97,42.88,19.42,32.53,46.44,5.652,5.41,8.22,22.2,21.67,17.05
657,12.12,14.3,84.9,12.13,24.95,18.84,21.83,15.586,16.14,4.77,2.863,3.756
658,8.266,21.23,1.969,17.81,3.955,3.578,79.0,35.25,18.06,6.875,12.914,4.59
659,13.89,12.16,31.52,11.555,31.11,15.15,4.73,9.87,5.945,3.932,4.633,6.004
660,6.98,27.48,1.792,13.11,2.662,14.96,6.965,91.44,17.3,32.5,35.0,17.98
661,12.25,21.9,24.1,14.83,11.92,49.16,3.752,2.775,4.625,2.977,7.0,3.553
662,14.48,26.84,34.4,21.2,12.32,46.4,12.82,12.125,12.266,9.66,6.7,9.45
663,5.996,10.625,6.17,7.613,5.668,7.695,19.83,5.49,8.516,9.56,6.2,6.793
664,18.33,11.23,7.254,11.484,9.61,5.324,5.656,11.125,6.723,3.525,7.375,7.254
665,14.766,10.6,8.84,10.7,12.36,6.48,8.54,5.24,19.98,12.99,5.55,5.67
666,33.06,105.06,38.8,61.6,16.48,92.1,19.44,29.97,12.33,11.63,15.164,24.1
667,19.45,29.95,22.75,14.875,37.2,23.23,13.29,7.348,8.555,10.086,11.31,7.816
668,3.963,15.945,9.375,6.98,4.387,46.94,2.53,14.086,16.42,3.605,2.764,3.24
669,11.6,50.12,8.3,21.72,5.246,50.5,7.906,10.49,24.05,39.34,19.95,23.28
670,23.3,32.97,64.06,17.98,102.2,48.4,11.34,4.05,9.23,6.03,9.97,10.664
671,4.68,22.03,3.451,6.832,2.496,17.14,7.082,9.44,11.95,10.02,2.39,4.492
672,7.938,19.86,49.84,10.71,15.55,35.22,5.67,5.34,8.3,4.03,3.436,3.174
673,12.664,7.656,5.277,12.945,6.234,4.035,6.02,2.03,2.854,1.298,10.26,77.9
674,31.62,7.906,10.766,19.64,40.8,4.41,4.97,5.656,8.9,4.73,4.254,10.36
675,18.94,15.484,15.88,14.766,10.74,16.22,4.37,5.23,8.78,4.504,4.805,3.715
676,47.22,11.09,8.96,22.19,37.94,4.96,15.68,48.16,25.47,7.266,10.94,7.82
677,5.715,25.6,6.652,9.375,3.541,112.5,3.957,49.94,33.47,15.06,13.44,12.84
678,9.35,16.2,30.22,13.59,7.938,19.42,24.17,7.63,4.844,4.277,6.14,8.92
679,26.45,40.12,14.78,33.7,21.1,33.66,4.03,16.4,23.98,39.88,40.22,51.88
680,12.62,17.48,33.28,17.12,16.1,16.9,6.19,11.21,47.84,7.426,6.88,8.47
681,24.77,13.79,5.496,18.9,15.43,7.668,8.055,2.604,6.06,7.5,9.29,9.77
682,25.34,19.5,23.97,15.016,30.47,19.84,18.36,27.03,22.92,9.164,10.984,11.76
683,19.69,21.73,19.77,16.22,9.22,18.53,4.01,3.541,10.836,7.785,10.695,55.28
684,66.0,54.34,15.15,87.0,41.06,14.12,7.586,2.799,4.12,13.89,52.16,95.56
685,3.352,14.195,17.47,6.367,7.207,44.66,3.592,7.39,14.61,6.934,3.219,1.507
686,20.42,71.0,21.73,39.6,14.9,115.5,23.05,7.047,8.09,7.58,6.805,13.805
687,27.8,32.72,24.6,60.28,35.28,16.84,0.527,1.807,3.277,15.0,35.97,28.0
688,31.84,43.34,35.47,36.78,33.38,34.7,71.06,5.15,9.43,9.8,59.62,34.25
689,25.28,15.2,44.7,16.97,29.38,15.7,17.77,8.28,5.008,4.65,5.223,10.375
690,28.75,28.97,19.5,67.75,17.89,22.06,29.14,2.648,2.113,22.1,23.88,6.516
691,10.69,21.44,16.53,14.65,12.92,24.84,11.3,17.5,18.1,5.516,4.613,10.94
692,4.324,18.44,18.1,9.05,4.703,49.47,7.33,7.152,4.902,2.568,1.985,2.219
693,4.184,19.4,13.914,8.1,4.453,35.78,7.207,7.914,5.027,31.64,5.902,7.227
694,26.11,17.77,31.42,15.92,62.47,19.83,29.1,10.39,17.16,6.07,5.117,13.234
695,13.26,33.66,22.3,20.6,18.16,38.44,14.35,10.016,10.34,7.832,8.05,7.633
696,29.98,39.5,9.29,45.06,18.31,11.0,95.56,15.83,7.64,10.57,6.6,6.688
697,42.66,52.6,36.78,64.25,50.8,39.2,28.89,21.8,17.19,26.03,12.48,11.91
698,5.258,7.168,21.67,6.113,4.55,31.88,3.914,1.447,1.234,3.26,1.75,1.835
699,11.54,57.72,27.97,35.88,4.1,48.75,24.55,2.451,7.004,3.611,4.59,4.36
700,17.0,50.56,12.04,23.81,13.59,55.44,4.465,11.39,41.3,22.98,3.305,2.635
701,16.67,18.69,17.56,15.11,27.83,9.38,139.9,12.02,15.36,15.31,11.28,7.508
702,21.94,15.9,40.94,12.984,65.44,20.0,7.418,16.62,18.0,12.29,4.137,12.83
703,2.13,3.135,1.38,3.94,1.791,1.605,1.568,1.669,6.96,8.766,1.914,2.19
704,19.73,27.67,9.12,36.2,9.79,16.5,68.56,17.77,9.35,3.611,10.195,19.55
705,14.23,457.2,290.2,196.8,78.5,361.2,286.0,69.1,22.23,24.94,10.32,4.29
706,6.387,50.38,6.188,13.84,5.324,17.39,23.53,2.518,11.81,20.2,23.7,44.06
707,4.312,34.66,16.3,11.76,4.12,42.12,7.723,4.258,7.594,13.49,17.28,10.86
708,12.92,37.12,6.43,28.05,5.938,62.75,14.766,30.89,32.4,15.91,12.13,12.65
709,17.4,31.52,25.2,29.69,19.28,23.27,25.31,16.98,11.266,9.4,8.28,9.14
710,7.938,6.16,1.164,62.53,2.342,0.6943,1.591,1.304,2.422,10.61,11.875,3.205
711,20.88,46.88,7.996,87.7,8.88,13.57,7.117,5.145,6.453,24.92,23.16,17.92
712,21.1,22.84,14.25,32.28,10.31,21.52,1.818,11.24,31.8,11.19,6.38,6.895
713,6.984,1.367,1.057,2.629,2.533,0.806,7.34,15.445,18.02,14.8,0.391,1.858
714,26.98,74.9,27.84,47.84,11.5,71.1,46.78,67.5,60.34,53.38,43.03,29.62
715,7.64,14.65,5.85,11.14,5.63,9.74,5.19,15.91,3.9,4.195,7.56,5.816
716,22.33,11.74,56.9,17.16,39.06,15.22,11.875,73.8,8.28,4.17,2.203,2.482
717,12.09,42.12,50.6,26.16,7.016,70.94,8.85,8.27,9.64,7.418,10.6,19.94
718,30.86,29.34,40.7,32.03,53.25,33.03,71.2,4.36,14.195,22.75,15.08,13.71
719,11.51,20.61,3.43,20.69,10.86,9.46,16.12,25.11,14.81,4.938,3.2,7.82
720,8.66,16.44,43.2,10.96,11.51,39.53,13.57,21.05,12.04,9.66,10.336,3.072
721,2.686,51.25,1.405,7.742,1.536,3.828,1.527,47.8,18.22,8.336,1.877,2.203
722,18.42,11.79,2.459,25.92,5.836,1.766,2.932,7.04,4.7,11.664,7.645,8.44
723,6.598,14.02,77.8,9.55,8.66,29.92,10.46,18.69,12.69,6.86,4.914,6.15
724,13.56,39.6,8.38,25.67,8.516,22.73,31.61,5.168,6.35,6.074,5.816,9.99
725,12.0,31.05,31.34,30.92,9.65,34.84,36.53,31.19,15.01,21.86,15.32,13.94
726,12.6,9.33,3.037,30.31,7.28,3.072,6.094,2.127,5.805,3.373,1.953,6.56
727,7.836,59.9,10.35,20.14,4.383,59.94,1.696,1.734,8.12,10.29,12.34,16.72
728,11.61,5.715,17.6,5.094,48.38,7.285,4.27,12.04,16.44,6.6,5.73,5.395
729,7.992,107.94,11.875,28.78,6.074,15.875,9.94,7.254,10.875,9.53,38.5,3.893
730,33.56,30.83,15.4,43.94,19.4,14.44,24.62,10.23,3.406,4.023,3.812,6.074
731,17.3,38.38,38.12,28.36,13.06,38.47,27.88,7.473,11.375,16.58,11.02,12.64
732,21.2,48.4,3.488,52.97,9.95,7.402,37.1,37.53,5.953,9.48,11.38,17.4
733,6.06,19.77,9.98,8.65,3.963,32.72,4.215,4.2,4.707,7.23,22.38,5.586
734,8.08,9.555,134.6,6.637,11.74,13.32,3.787,3.414,3.004,5.906,7.406,5.234
735,9.484,26.12,6.19,14.16,5.89,20.44,3.008,9.12,10.055,17.0,10.67,6.406
736,6.85,21.48,11.59,14.4,3.371,29.17,13.734,14.08,11.21,4.934,5.65,15.57
737,35.3,38.94,7.258,101.25,6.19,15.07,10.92,10.63,5.13,18.39,23.38,19.69
738,5.38,14.52,6.055,7.273,2.377,49.2,2.13,7.344,47.66,27.73,11.67,9.14
739,8.64,26.72,25.14,18.3,13.55,32.94,10.266,6.848,4.344,4.984,3.758,3.32
740,4.66,41.12,0.6904,23.83,1.563,1.637,3.607,2.379,2.305,10.67,10.29,14.1
741,9.44,23.23,6.94,12.08,7.523,67.56,2.637,14.71,30.22,20.03,12.92,14.51
742,6.67,86.0,39.8,24.62,5.703,200.9,20.58,25.36,28.81,13.45,15.27,11.18
743,15.805,21.39,34.38,17.44,64.75,24.5,14.76,15.38,5.816,9.266,16.86,24.31
744,6.957,35.3,4.355,17.16,4.086,12.766,11.21,2.984,5.56,9.23,5.74,3.791
745,19.7,26.89,20.52,31.86,13.01,23.14,12.625,13.0,19.03,6.68,19.7,23.44
746,13.08,46.47,80.56,23.56,45.8,59.22,12.016,14.664,8.85,6.117,4.19,5.473
747,14.89,24.11,19.0,22.3,14.516,21.17,14.43,12.17,14.36,7.297,5.49,9.09
748,5.523,29.55,68.44,16.19,9.23,42.1,14.32,17.14,18.47,18.83,15.34,18.5
749,6.59,30.56,119.3,13.0,13.99,54.38,4.203,6.438,18.48,10.38,3.393,2.957
750,13.61,25.03,18.62,15.516,15.54,57.2,9.98,4.74,12.71,12.0,5.895,5.46
751,9.81,39.97,2.074,16.83,5.73,16.42,3.28,10.36,14.195,15.6,10.45,12.73
752,38.28,43.47,72.06,29.92,109.25,60.5,2.338,5.098,50.3,24.47,28.39,21.72
753,5.133,5.746,35.25,5.086,7.88,14.91,7.246,6.414,2.75,1.838,1.964,3.172
754,11.52,7.75,12.79,12.016,16.62,5.895,7.215,7.816,11.93,6.188,6.137,5.906
755,16.7,50.94,13.16,39.94,8.945,32.53,5.61,10.74,3.42,3.646,11.6,12.9
756,16.88,43.9,18.23,25.19,12.625,128.2,16.02,23.53,17.52,7.26,10.87,12.234
757,21.44,52.2,57.6,29.48,21.33,110.44,6.902,9.29,38.2,21.45,11.42,5.324
758,14.266,66.1,46.0,38.22,8.58,94.94,27.06,9.61,9.66,14.97,5.477,7.777
759,38.66,19.61,58.78,12.12,42.8,33.34,18.36,53.78,17.6,13.77,13.05,19.53
760,12.3,23.23,11.78,16.86,10.11,22.56,4.176,9.91,23.88,27.64,27.61,19.45
761,5.96,10.195,6.383,9.24,3.03,9.15,4.77,17.22,40.34,4.043,5.07,6.33
762,23.52,52.44,31.67,29.89,18.02,81.06,17.16,15.086,16.31,15.38,13.94,16.47
763,12.03,39.3,20.56,26.7,6.93,95.5,7.082,8.53,10.24,5.707,7.28,15.25
764,5.633,11.28,71.5,10.91,15.69,37.28,17.23,12.445,8.53,5.465,6.406,2.61
765,26.53,138.2,16.69,54.0,19.88,279.0,11.484,4.98,36.53,25.14,14.54,18.42
766,1.647,1.247,6.703,1.281,2.438,2.352,2.084,11.44,3.621,2.277,2.848,1.083
767,6.95,17.73,6.3,10.01,4.66,24.36,20.6,10.98,9.57,3.723,1.511,1.767
768,31.61,54.28,42.88,47.47,73.75,42.4,21.53,14.47,12.016,17.2,16.12,31.97
769,18.39,13.32,18.03,15.9,10.26,16.7,14.56,4.098,12.99,5.445,5.83,6.46
770,51.3,44.2,38.4,47.6,19.84,69.5,24.48,2.16,1.122,4.984,14.32,24.42
771,14.99,27.78,12.54,16.14,13.27,59.22,18.94,10.63,27.98,20.33,13.16,10.17
772,13.484,6.664,13.11,6.688,56.2,7.133,0.501,1.8955,11.5,4.668,8.01,9.164
773,9.08,10.72,16.03,8.72,24.53,14.48,2.83,11.586,14.73,8.44,5.39,6.297
774,23.27,28.19,33.88,27.47,45.22,10.03,6.164,12.12,13.62,6.598,8.625,8.74
775,28.95,18.25,15.08,25.56,35.12,12.16,7.188,6.06,8.86,7.04,7.27,14.48
776,27.62,18.7,22.06,20.38,63.6,17.84,13.05,4.67,42.25,14.6,5.523,7.438
777,11.57,17.88,92.25,8.55,21.44,26.67,5.727,1.382,24.67,8.03,7.074,7.312
778,28.5,19.4,14.46,21.3,10.09,14.14,3.023,3.47,13.16,11.04,13.75,14.24
779,9.21,32.25,16.73,22.58,4.312,42.94,8.516,7.2,8.445,10.37,9.06,14.84
780,8.15,55.06,16.45,17.28,9.73,89.5,11.19,2.924,8.164,2.215,6.766,9.82
781,10.664,24.61,7.734,13.11,11.2,8.68,14.42,3.379,6.516,6.297,8.05,12.875
782,13.445,12.766,10.72,8.945,23.89,29.23,1.4,2.361,5.812,15.59,3.273,6.246
783,13.695,8.555,38.16,12.695,26.53,12.07,5.504,18.66,4.93,2.643,2.97,3.145
784,20.64,37.56,34.22,24.56,34.12,44.2,24.9,6.36,5.152,9.06,8.93,9.59
785,15.336,13.66,9.06,15.69,20.4,15.95,32.25,4.555,4.863,5.363,7.78,22.23
786,5.58,11.32,40.44,6.133,12.35,26.62,10.875,22.39,30.62,14.79,9.2,6.52
787,21.08,25.3,5.875,33.4,6.4,46.16,5.055,8.055,88.7,12.84,7.742,13.36
788,56.4,36.53,10.74,73.8,22.58,13.98,5.996,4.15,4.26,6.453,14.25,70.1
789,13.95,2.918,4.324,7.07,6.305,1.813,7.258,5.78,14.74,6.19,3.502,1.385
790,10.97,3.156,19.4,5.234,65.2,4.625,7.18,7.74,16.86,3.947,2.04,3.139
791,11.12,15.66,73.3,10.62,17.77,23.94,14.7,10.83,19.42,22.7,26.86,9.16
792,15.516,14.055,25.38,13.19,47.9,14.26,4.875,3.627,6.848,12.5,10.664,10.38
793,11.54,19.16,26.52,11.8,26.16,22.06,11.89,18.89,10.3,6.53,6.625,5.05
794,7.223,13.16,40.84,9.37,9.28,14.26,9.64,3.32,13.76,9.99,10.69,13.484
795,28.2,5.27,6.49,30.06,6.312,7.562,93.4,59.53,31.45,2.072,22.3,23.53
796,5.375,20.0,13.234,8.14,4.707,87.75,5.81,10.92,6.99,5.453,3.746,4.375
797,52.7,45.6,30.42,43.03,21.64,39.44,16.05,11.68,23.05,9.484,4.465,22.4
798,5.227,13.86,7.22,8.016,4.83,33.03,9.766,15.28,11.95,5.832,2.225,3.062
799,54.06,39.5,31.33,61.16,40.84,34.03,87.25,28.78,5.215,28.78,38.34,25.83
800,12.76,35.66,17.92,24.11,4.566,25.31,9.1,1.011,5.883,7.656,5.88,11.125
801,18.8,44.97,100.0,24.7,21.11,78.75,5.223,9.26,17.17,10.625,5.406,3.607
802,12.46,18.88,28.83,17.1,24.0,29.05,10.48,4.312,3.742,2.018,1.872,3.248
803,8.41,45.3,34.8,21.31,6.625,64.9,4.504,16.42,9.17,9.43,9.3,10.65
804,11.76,9.34,30.53,11.664,8.74,15.01,43.94,10.21,6.227,4.53,7.465,8.625
805,13.516,55.34,66.1,14.82,11.42,80.25,14.65,13.15,6.277,11.35,10.33,13.29
806,8.7,34.66,10.336,15.34,3.97,39.22,19.84,49.3,12.05,8.79,3.658,10.64
807,61.44,18.31,18.08,36.22,65.8,12.52,7.707,8.266,9.78,7.348,10.89,8.68
808,12.195,39.3,42.22,24.78,10.266,44.12,4.516,5.152,2.656,12.984,15.79,24.42
809,9.85,54.75,8.086,41.22,8.73,22.28,8.65,15.016,23.47,30.33,22.6,23.73
810,10.08,59.53,108.8,50.34,10.44,80.25,13.46,13.57,20.73,10.73,11.53,14.65
811,17.08,21.48,29.58,19.75,55.0,25.38,13.43,4.22,21.48,22.88,12.07,10.38
812,48.03,41.44,37.16,37.78,67.4,37.3,13.47,2.799,27.9,21.47,17.84,20.5
813,100.06,47.88,59.94,101.75,56.88,57.94,10.33,3.195,8.195,7.504,8.4,7.773
814,16.69,21.92,19.72,18.33,46.0,19.88,11.35,4.36,4.965,4.95,5.676,9.625
815,35.7,46.38,11.89,51.3,18.31,24.27,31.34,8.234,7.52,6.367,10.555,27.62
816,9.74,18.38,50.6,16.34,10.08,54.28,8.17,9.74,6.094,4.574,10.24,37.5
817,19.56,39.12,23.98,40.62,8.32,36.78,13.91,2.38,2.549,7.74,13.734,27.67
818,8.06,20.06,11.06,11.59,5.848,43.4,6.125,9.234,15.73,12.7,13.45,34.56
819,16.03,35.38,15.23,24.2,16.1,22.88,5.176,6.55,19.34,14.11,5.36,6.297
820,27.14,12.96,33.3,10.41,39.88,15.19,4.008,2.656,13.734,15.836,4.938,4.05
821,24.1,110.94,13.09,98.75,3.826,27.81,2.037,3.066,4.4,11.92,9.78,9.72
822,36.1,18.0,20.11,22.86,71.3,9.19,5.902,61.3,33.94,10.836,5.92,5.9
823,9.51,13.0,20.72,9.25,11.875,23.28,4.3,5.844,8.66,6.04,7.65,4.695
824,8.53,34.34,4.29,15.92,5.266,22.55,7.0,17.28,13.1,17.23,15.445,9.65
825,5.98,6.75,8.26,7.85,7.945,5.188,0.944,1.07,0.1251,0.782,2.477,12.47
826,64.5,92.25,33.53,95.56,17.6,458.2,38.16,18.14,12.055,27.86,433.5,88.5
827,11.53,15.51,24.52,15.31,18.58,25.16,4.32,29.5,19.78,2.615,5.465,15.5
828,3.959,14.84,6.61,4.566,5.074,10.9,62.66,41.47,16.88,2.162,5.465,3.299
829,5.64,12.99,16.05,7.727,6.89,32.9,9.35,9.89,16.72,9.305,2.268,2.787
830,28.1,53.7,19.86,48.1,6.605,55.03,16.06,11.07,11.43,5.402,3.588,7.938
831,23.16,94.56,9.67,55.56,4.95,115.25,20.19,10.27,11.8,19.6,23.03,25.42
832,26.55,27.39,23.9,49.5,18.11,34.62,70.06,60.97,13.77,39.47,41.44,29.17
833,14.55,21.12,12.05,11.625,9.57,36.88,5.777,11.72,9.85,5.883,6.09,9.766
834,9.164,28.03,23.02,15.77,5.375,38.25,4.805,6.664,6.863,6.953,4.586,7.664
835,14.73,24.72,9.87,19.72,8.63,21.02,12.53,24.34,19.95,7.895,7.35,9.93
836,18.38,28.55,25.77,25.44,27.1,43.5,36.78,4.434,11.31,12.09,11.414,10.32
837,52.4,29.8,12.71,31.2,36.4,23.19,10.13,4.91,9.305,13.88,21.42,28.69
838,19.19,37.8,47.84,26.22,17.22,71.4,35.47,7.32,11.82,10.54,9.87,10.87
839,26.02,46.22,26.83,45.66,44.7,37.2,22.81,5.348,3.762,2.877,4.277,8.914
840,14.82,49.9,3.197,20.56,6.56,10.734,8.34,17.69,22.75,20.31,30.27,13.09
841,12.77,14.25,67.06,12.31,20.25,22.12,6.555,4.85,2.328,3.807,4.15,7.855
842,12.984,7.938,19.83,10.76,20.61,8.23,8.69,8.266,12.98,6.46,4.77,4.785
843,6.77,33.28,32.12,12.67,11.63,34.84,11.32,5.64,2.97,2.66,5.84,3.785
844,11.164,13.53,28.97,12.984,15.55,19.23,8.27,9.28,7.375,6.406,11.734,18.0
845,11.66,48.38,5.598,28.83,7.293,15.15,4.332,19.61,4.01,3.44,8.016,12.48
846,5.656,28.56,2.545,9.81,2.98,2.705,15.85,20.73,4.26,6.523,5.07,10.164
847,10.03,51.56,29.1,27.86,11.75,48.25,20.73,8.21,9.37,9.34,8.22,5.715
848,16.67,112.2,36.16,66.75,9.484,109.06,23.73,8.805,3.594,27.12,18.62,18.03
849,14.836,36.22,7.87,21.86,16.16,24.0,9.234,7.938,12.47,14.4,8.52,10.6
850,13.77,45.16,64.75,26.97,16.88,70.75,24.05,60.44,9.375,15.42,12.05,16.23
851,9.31,102.5,55.56,37.8,8.02,98.75,29.83,52.3,16.73,30.75,17.08,12.43
852,14.516,3.373,1.509,75.94,2.643,1.334,26.28,13.74,11.14,9.15,6.51,5.277
853,10.62,15.78,42.78,3.406,18.44,41.8,7.27,18.86,86.0,36.97,59.12,23.52
854,13.39,28.58,3.762,30.62,6.15,7.113,7.04,6.492,9.44,15.05,14.56,8.48
855,4.938,6.113,5.465,5.656,3.963,9.32,1.635,13.625,16.62,12.375,9.47,4.74
856,42.7,39.47,51.97,24.16,57.3,52.9,2.479,52.9,9.0,8.71,9.125,16.61
857,6.246,23.23,37.1,13.164,9.805,25.61,23.75,5.51,0.8965,2.223,1.027,13.586
858,3.031,9.24,6.09,7.06,1.672,9.7,6.848,5.71,6.457,3.432,1.679,1.898
859,51.25,13.836,17.31,21.86,55.44,9.99,10.664,13.94,7.504,10.12,14.67,41.6
860,17.33,13.72,11.555,15.36,26.2,11.87,12.77,30.28,19.56,10.03,7.074,11.086
861,15.984,10.195,27.06,10.71,130.6,13.43,15.63,3.59,12.99,4.9,4.76,4.637
862,10.34,15.59,4.508,17.0,8.19,2.38,4.79,3.494,4.047,4.703,4.094,4.8
863,54.22,22.17,25.14,41.3,28.11,15.39,7.047,31.31,32.84,31.1,16.97,8.64
864,22.88,19.14,35.66,18.95,24.56,26.48,11.586,16.22,40.6,17.72,7.645,10.94
865,14.29,21.19,36.0,16.02,26.16,14.76,24.88,23.05,22.77,11.56,8.266,7.715
866,23.88,62.5,62.9,37.16,25.39,80.4,17.39,2.473,5.97,16.88,15.3,11.12
867,32.1,61.78,20.61,49.0,15.3,42.16,7.754,2.516,8.195,11.15,17.86,44.12
868,18.3,14.5,5.46,16.03,10.305,14.46,465.0,13.56,5.934,2.31,4.453,33.6
869,27.1,38.88,10.64,27.64,20.19,27.52,16.77,5.54,12.4,15.0,22.2,14.38
870,42.53,149.6,8.62,180.2,4.723,32.56,18.0,44.88,173.9,282.8,147.1,138.6
871,31.81,33.12,40.1,24.31,67.56,34.03,11.64,8.414,7.848,4.914,10.48,29.14
872,5.78,34.84,1.928,27.17,1.499,7.305,1.568,3.041,3.28,23.19,3.516,2.63
873,13.43,32.1,24.58,23.39,5.69,74.06,8.54,5.73,5.06,8.25,9.08,12.555
874,16.25,46.72,22.38,34.06,21.66,43.75,24.3,15.164,14.88,8.4,7.97,16.67
875,11.29,39.9,9.2,28.78,4.2,45.06,5.0,16.48,10.586,13.52,39.38,7.08
876,72.25,15.05,16.05,27.19,25.69,13.03,14.805,17.7,15.55,15.08,26.12,31.8
877,31.73,28.39,14.266,28.11,35.56,25.22,10.22,21.31,12.82,10.1,10.06,12.91
878,8.73,46.94,37.22,21.97,3.408,99.5,9.01,3.832,8.484,6.105,5.004,5.832
879,7.438,5.37,28.94,5.21,9.55,11.79,6.53,21.33,14.51,4.19,3.447,3.008
880,11.22,4.633,8.33,5.633,35.03,6.4,5.324,2.115,11.016,4.215,2.89,5.934
881,34.6,16.31,20.97,14.66,21.03,18.42,17.52,21.17,32.7,23.2,7.23,32.28
882,40.6,23.0,20.14,31.19,69.75,16.75,2.604,2.938,12.664,35.06,27.88,18.39
883,13.586,27.56,12.94,18.88,10.21,49.22,4.98,43.28,17.17,14.58,18.05,9.984
884,7.613,8.27,50.12,6.97,10.36,7.223,12.54,6.44,11.516,4.285,5.28,2.56
885,20.2,52.3,11.25,42.75,6.816,39.47,10.87,10.52,8.72,15.29,13.516,16.25
886,45.66,73.06,79.25,66.4,27.05,78.56,46.38,25.14,27.58,25.61,15.17,15.086
887,53.38,27.22,15.77,40.0,49.3,7.98,9.52,11.13,23.08,10.32,8.73,20.47
888,68.9,20.0,6.88,32.06,34.97,12.08,4.324,0.4243,4.016,9.766,11.586,8.836
889,9.805,30.86,14.38,16.72,7.805,94.2,3.975,12.85,10.81,13.05,12.09,33.6
890,12.664,43.97,31.16,24.2,10.914,54.78,13.23,15.375,13.31,16.36,17.73,34.3
891,48.72,18.81,13.91,45.56,20.55,24.14,6.125,8.57,11.625,16.78,23.64,16.42
892,6.676,59.6,3.732,11.305,1.813,13.83,2.709,11.125,24.8,37.72,11.55,5.336
893,30.27,16.23,41.16,22.36,91.2,24.03,8.2,21.78,18.3,11.87,19.88,90.1
894,108.06,17.02,20.0,35.66,66.1,16.78,20.27,5.855,37.56,14.09,11.86,11.86
895,11.266,34.03,50.56,11.92,18.78,49.12,14.484,16.2,13.39,7.652,6.03,6.15
896,8.125,8.26,36.03,7.99,10.516,13.83,8.07,6.15,6.668,6.01,5.074,7.973
897,7.82,28.67,5.715,13.96,4.258,24.23,15.68,24.98,19.11,14.27,11.12,9.305
898,46.88,11.23,17.17,14.06,19.81,13.43,3.951,5.883,5.81,7.75,8.164,13.45
899,7.48,27.36,12.01,11.34,6.87,40.6,4.24,9.51,11.016,4.08,5.145,5.527
900,12.914,37.6,10.31,20.16,11.93,38.75,14.49,7.07,12.94,10.29,23.53,15.266
901,18.06,9.266,29.7,9.42,31.36,9.13,9.51,1.991,33.9,6.137,2.826,2.248
902,9.13,43.5,107.8,17.9,13.89,54.38,10.52,9.61,6.227,13.38,20.05,19.9
903,13.92,19.95,66.5,16.66,17.17,34.44,7.637,6.074,8.71,21.05,11.805,12.32
904,69.56,64.5,20.03,85.4,33.03,37.7,8.016,9.89,15.57,16.28,20.62,23.75
905,37.94,81.94,141.0,68.8,25.16,82.8,20.25,16.42,21.34,19.52,21.83,24.9
906,13.58,74.25,11.97,23.48,12.32,59.0,19.1,23.38,27.34,13.12,12.625,10.86
907,77.5,18.81,23.94,25.64,106.3,16.75,53.5,7.766,8.81,15.72,7.7,5.516
908,12.68,23.02,53.2,12.59,6.465,64.9,5.844,15.99,13.36,14.56,8.09,14.3
909,9.43,18.73,31.77,12.31,21.89,29.7,10.88,3.521,1.811,1.85,1.441,4.22
910,16.86,30.36,26.92,22.86,7.95,35.12,7.08,8.484,12.125,15.43,13.59,11.34
911,10.42,48.12,59.94,22.4,9.49,79.3,16.62,34.06,25.45,12.09,9.984,9.47
912,10.26,24.1,55.38,15.05,14.39,43.16,3.123,4.727,20.92,14.945,13.18,15.21
913,46.06,7.824,76.75,14.13,182.0,22.84,7.05,2.652,4.055,4.668,13.27,2.36
914,31.69,58.75,21.62,43.0,33.7,48.2,11.59,3.018,5.785,14.984,8.9,9.484
915,7.09,18.33,32.53,10.29,8.9,31.16,3.162,6.004,7.3,6.56,6.21,7.33
916,6.918,14.72,12.11,9.24,5.156,27.67,12.47,8.13,11.305,4.94,3.426,7.895
917,7.637,14.73,50.25,9.13,13.67,58.25,37.84,15.66,13.32,18.08,10.95,11.4
918,6.508,51.56,25.78,16.27,8.3,64.3,20.86,12.586,2.807,6.45,13.02,30.62
919,29.83,10.6,7.926,17.03,41.06,6.336,12.91,5.99,14.25,19.16,12.055,9.13
920,15.91,14.84,87.94,10.97,36.62,26.05,2.992,1.965,4.258,4.945,3.234,3.58
921,5.96,55.88,5.63,9.484,5.652,75.25,4.484,3.926,6.92,20.64,9.25,12.914
922,34.12,63.56,44.47,62.72,76.0,47.97,18.88,8.8,4.04,1.305,21.52,4.617
923,202.6,35.56,16.52,300.5,42.9,15.164,24.19,0.604,0.7944,2.182,3.777,8.81
924,21.31,39.56,21.12,26.08,29.77,20.64,4.777,12.57,16.9,16.8,18.48,52.16
925,11.02,48.78,10.37,26.77,6.227,97.4,13.44,2.453,10.72,29.11,21.97,51.28
926,5.668,28.95,1.209,7.457,3.176,10.9,16.33,5.793,9.13,5.04,4.47,5.402
927,6.74,8.875,22.89,6.867,13.79,9.58,1.754,11.31,40.03,3.95,2.479,3.137
928,14.75,20.25,54.8,13.54,42.5,30.83,11.87,5.69,39.22,13.055,7.97,8.84
929,5.27,32.97,3.094,9.9,2.525,2.748,2.5,16.08,20.45,17.56,11.24,39.72
930,31.03,19.19,89.8,26.56,48.38,64.1,10.66,4.164,20.08,11.555,10.08,8.74
931,36.44,93.94,17.86,84.3,25.44,30.69,26.44,21.33,19.3,39.2,65.2,52.5
932,8.14,13.03,9.234,6.652,8.62,15.164,26.78,13.74,10.734,3.725,7.926,9.164
933,37.94,92.4,41.34,43.25,49.16,162.4,17.94,4.297,14.29,14.1,17.53,21.95
934,9.445,21.06,14.61,15.82,11.71,26.45,2.049,9.195,6.316,4.73,7.15,5.55
935,5.82,22.86,21.95,10.64,7.1,95.75,1.422,10.945,25.27,23.0,11.12,4.78
936,28.8,77.4,9.91,50.47,12.195,83.7,11.86,20.22,40.34,41.5,56.94,72.25
937,72.56,59.34,70.25,49.22,37.7,78.56,120.6,9.87,10.76,10.35,28.77,31.72
938,41.97,46.62,9.59,42.16,25.28,10.96,60.34,32.56,14.984,15.96,15.0,24.02
939,8.445,14.016,2.541,19.08,4.574,5.57,15.56,3.713,3.195,2.582,3.15,6.746
940,23.22,35.84,46.16,22.98,44.12,34.56,10.75,3.945,1.588,4.062,5.15,8.07
941,119.3,84.25,13.7,88.44,78.1,69.8,20.83,10.12,9.84,215.8,100.2,62.9
942,13.16,76.8,92.44,64.2,72.56,91.7,4.754,8.18,30.58,51.34,38.88,39.5
943,8.16,7.582,34.9,7.973,8.99,10.71,7.145,48.28,12.875,4.86,2.318,1.611
944,22.19,26.97,71.5,22.02,21.11,35.78,14.586,15.07,10.42,10.21,9.54,20.17
945,31.73,79.2,10.9,68.3,20.83,9.26,8.75,2.959,3.852,8.52,107.25,100.2
946,174.6,122.44,145.9,176.9,86.25,126.94,15.84,5.348,4.824,12.945,16.73,24.38
947,11.4,8.81,16.67,10.055,27.34,8.88,3.865,1.712,12.65,5.582,5.863,6.27
948,44.6,63.8,23.81,48.88,10.17,66.0,9.555,14.37,14.305,32.25,29.73,53.97
949,13.625,54.12,20.92,35.53,4.05,108.1,4.426,14.66,19.19,17.98,17.48,25.52
950,16.19,12.18,17.1,9.13,28.7,15.2,25.25,4.73,16.28,8.03,5.375,29.58
951,21.4,18.23,13.81,23.52,18.8,13.31,3.648,5.01,11.914,5.03,5.375,8.08
952,35.34,87.3,49.06,78.0,27.8,55.28,106.44,22.06,22.56,5.36,5.984,2.828
953,7.184,14.27,30.88,11.62,16.55,17.39,3.54,9.73,15.42,21.02,6.332,8.984
954,16.34,36.5,18.58,12.77,15.99,30.77,11.85,1.912,5.105,12.21,22.06,17.44
955,30.11,46.75,33.3,35.6,38.22,39.75,31.97,4.445,8.93,41.0,23.94,23.98
956,12.42,42.8,24.92,27.38,8.555,48.4,2.162,9.836,22.72,4.22,7.977,10.516
957,17.38,9.19,11.35,11.65,35.25,11.11,5.0,2.31,29.61,5.062,6.887,6.39
958,11.56,27.83,52.1,18.62,15.28,43.62,6.15,51.25,33.53,10.58,4.383,6.727
959,14.32,9.766,20.08,10.48,18.16,10.92,7.72,7.234,8.76,4.117,30.45,7.4
960,5.516,11.18,47.56,6.527,10.805,55.03,11.93,7.562,9.305,17.23,8.3,4.684
961,20.88,33.4,7.07,25.8,13.266,13.2,4.688,6.58,12.49,6.977,6.12,10.13
962,23.25,11.7,33.56,14.766,45.0,10.766,7.125,1.043,7.6,4.305,2.957,4.047
963,5.074,60.5,1.778,14.15,1.374,6.008,2.266,2.12,3.934,37.0,4.664,4.21
964,6.57,31.08,8.3,16.62,3.826,73.4,6.01,8.98,10.44,8.945,8.2,13.11
965,41.28,15.695,13.58,20.23,20.67,11.58,3.252,4.773,10.734,5.83,6.98,7.707
966,15.3,23.16,15.65,22.47,10.91,21.62,7.906,4.336,16.97,28.06,18.48,31.25
967,5.723,21.9,31.14,11.53,16.11,39.25,4.758,11.086,39.9,21.89,3.867,3.752
968,22.28,76.5,47.3,48.72,12.18,96.2,21.02,2.713,3.852,10.29,13.88,21.61
969,18.36,67.7,19.48,63.75,5.02,40.34,44.03,14.266,7.47,5.758,2.74,14.9
970,11.03,11.02,24.95,9.97,24.14,16.89,7.656,12.805,9.32,5.19,5.86,9.836
971,16.38,29.16,47.25,45.6,25.06,36.66,7.125,4.95,11.52,12.98,13.31,15.05
972,5.695,8.66,50.0,7.086,7.812,49.28,20.75,3.455,5.316,6.88,3.482,2.393
973,7.73,11.305,35.16,9.2,11.88,10.836,9.766,7.812,11.664,10.4,4.562,5.06
974,14.08,85.75,22.66,30.39,7.508,63.8,26.5,17.31,13.625,14.0,9.85,17.88
975,19.03,28.38,51.06,24.8,38.1,40.03,2.2,5.535,15.99,11.43,11.18,13.7
976,28.55,29.86,16.84,29.98,37.22,34.03,26.23,5.9,7.176,6.688,23.44,24.14
977,13.69,45.34,7.29,26.25,6.8,23.6,9.875,24.12,36.38,22.14,21.62,13.266
978,41.8,54.44,74.25,48.8,70.6,52.56,37.44,26.7,47.16,9.336,13.64,26.52
979,18.86,83.2,3.15,38.88,8.76,19.55,8.61,15.914,22.03,26.55,25.27,28.86
980,7.867,22.67,9.35,15.54,3.74,22.69,11.56,10.98,13.69,13.9,12.23,14.266
981,15.99,34.47,2.598,50.3,6.758,7.727,9.29,26.55,19.33,17.5,12.01,15.72
982,20.86,15.02,44.22,15.945,29.3,18.7,9.52,13.56,21.9,12.65,11.93,12.8
983,16.44,76.56,15.21,32.38,10.055,13.4,5.555,10.93,13.51,19.53,18.81,24.2
984,8.88,16.34,2.504,29.08,8.25,14.336,5.875,7.98,25.66,28.64,14.03,13.43
985,9.914,8.03,39.75,6.484,26.42,10.09,2.85,9.984,21.02,5.816,4.5,5.062
986,20.22,12.445,55.34,8.66,39.8,18.67,5.348,4.11,10.01,17.5,6.4,3.951
987,10.93,11.63,21.19,9.21,13.125,21.05,4.094,8.37,7.633,5.277,4.71,7.52
988,21.77,24.84,23.06,22.4,14.61,27.95,21.66,9.81,12.75,12.66,14.17,11.98
989,7.21,12.67,15.17,4.188,10.39,35.0,17.55,11.4,11.17,11.766,34.78,97.06
990,24.78,38.25,8.03,45.53,9.45,10.32,7.887,4.574,12.234,16.25,22.14,32.4
991,19.55,40.2,49.66,26.8,31.97,51.47,3.926,3.111,8.83,10.18,10.45,10.79
992,11.125,58.3,46.62,28.33,7.87,107.7,32.84,3.783,7.344,10.586,12.61,38.5
993,9.28,42.66,2.531,35.38,3.422,12.41,2.62,4.527,26.56,43.6,33.62,23.69
994,30.92,40.22,34.94,36.2,30.2,205.0,28.02,56.97,56.16,61.62,52.9,73.0
995,8.12,37.38,8.055,18.55,6.375,51.16,35.12,9.266,8.97,6.6,10.84,16.89
996,8.414,10.74,21.2,4.8,14.88,23.69,10.12,12.39,3.893,2.97,3.828,5.24
997,32.72,28.28,8.69,32.7,12.836,16.19,28.72,39.94,21.25,11.53,29.58,27.8
998,15.555,26.0,15.47,18.69,49.6,15.3,9.945,14.01,12.29,12.16,7.793,10.76
999,16.31,67.25,4.086,36.9,6.637,33.5,8.45,16.28,13.23,18.39,6.082,6.4
1000,10.06,18.47,26.48,11.86,22.67,21.6,27.34,6.484,6.73,4.44,6.402,12.24
1001,9.32,55.44,5.637,36.44,4.13,22.47,26.23,10.1,4.09,7.766,5.02,2.916
1002,12.875,19.31,32.8,17.14,42.28,27.8,6.094,21.88,16.27,15.68,9.29,11.56
1003,15.96,15.445,24.11,15.63,21.8,19.45,3.607,16.86,21.4,14.62,9.79,7.4
1004,23.42,15.82,17.98,19.78,19.06,15.62,7.496,7.473,9.83,13.64,23.75,37.44
1005,2.047,3.596,12.86,2.846,4.863,6.383,1.589,7.414,10.5,13.37,2.871,2.781
1006,36.97,23.45,24.33,32.44,25.3,18.8,33.34,8.625,11.836,7.844,9.82,16.98
1007,68.1,48.78,72.7,55.25,83.56,60.22,13.195,2.447,16.56,7.484,8.48,12.73
1008,17.14,12.266,23.39,15.35,60.0,12.98,7.527,2.223,2.227,3.13,7.086,6.574
1009,4.7,12.07,24.44,9.266,4.293,18.88,9.01,9.35,4.324,4.76,9.63,7.098
1010,23.25,22.38,16.31,26.8,15.57,18.22,10.36,21.61,40.88,29.17,13.78,9.96
1011,3.523,42.44,3.832,17.9,2.156,10.75,31.23,44.88,30.11,13.61,13.96,9.14
1012,5.02,17.25,7.074,12.8,4.297,10.91,3.508,18.66,18.11,3.797,2.71,3.342
1013,8.22,13.33,32.66,9.57,82.8,18.05,13.66,44.94,11.12,1.915,0.739,1.133
1014,12.83,48.28,69.94,26.64,12.664,71.25,8.78,6.754,4.984,2.453,3.371,16.6
1015,29.52,21.58,14.14,33.47,15.266,18.02,7.055,3.566,5.594,15.61,8.984,8.4
1016,23.48,18.12,7.605,32.5,7.43,8.88,20.67,7.652,10.28,11.97,14.82,20.8
1017,110.1,17.88,32.62,32.03,132.0,12.68,3.457,0.837,12.77,8.43,11.82,15.88
1018,4.85,5.344,8.87,4.742,6.59,5.207,3.748,2.41,3.033,2.705,2.156,2.518
1019,4.355,10.61,28.92,6.984,12.266,15.08,3.531,23.77,12.24,5.426,3.229,2.773
1020,33.84,110.44,31.08,70.44,10.79,115.5,16.66,11.33,13.99,22.6,24.33,26.36
1021,4.598,13.664,17.42,9.17,3.648,34.72,3.19,6.434,3.723,1.575,1.771,4.01
1022,11.06,23.5,12.82,17.05,13.09,22.17,3.875,2.861,10.29,10.125,10.21,5.56
1023,16.19,34.62,29.77,26.95,27.98,27.81,10.086,14.125,16.75,30.12,19.78,16.61
1024,5.34,21.55,2.871,13.6,2.316,12.9,99.44,23.0,25.77,23.17,2.176,1.212
1025,13.766,52.3,20.39,24.38,9.67,83.75,18.97,11.53,6.156,4.477,4.438,6.9
1026,7.863,6.96,11.375,5.273,9.734,6.95,6.055,3.19,1.928,3.543,7.105,2.91
1027,23.36,18.0,5.656,20.75,12.45,10.32,2.775,3.623,6.133,5.203,14.57,8.77
1028,42.3,9.836,18.31,18.98,38.88,8.42,4.31,17.66,17.5,11.336,10.19,11.73
1029,52.22,219.9,55.47,173.5,43.28,10.9,4.777,6.316,10.445,23.38,40.3,55.06
1030,12.92,24.6,10.76,16.95,14.7,27.33,6.457,4.938,7.414,8.0,9.13,14.53
1031,3.79,34.62,2.96,8.77,2.225,8.36,3.46,16.94,8.0,23.06,11.68,16.66
1032,22.58,20.28,53.5,21.39,25.23,27.77,8.51,2.229,1.103,3.28,1.965,0.765
1033,16.2,12.305,53.0,15.484,36.03,14.23,4.664,6.492,3.31,31.55,6.336,5.125
1034,6.55,41.47,0.865,14.836,2.184,3.564,6.72,17.52,26.05,4.812,1.973,3.885
1035,18.9,7.215,10.02,8.59,27.77,6.164,5.25,2.117,1.426,1.192,1.459,6.707
1036,14.8,9.62,18.14,9.02,28.66,10.63,5.633,9.58,19.17,9.766,3.645,3.963
1037,10.125,7.51,0.736,52.84,3.207,1.21,3.31,5.32,12.52,7.707,8.63,9.69
1038,39.44,40.8,9.17,56.38,14.914,25.33,28.19,13.125,19.53,25.05,24.16,21.42
1039,6.19,6.977,8.91,12.11,9.76,7.062,7.46,22.6,16.81,15.32,4.695,2.072
1040,19.48,49.56,7.63,30.84,6.145,36.0,11.14,12.53,16.78,12.125,12.26,14.37
1041,20.58,13.03,9.6,13.26,5.332,11.92,27.89,3.576,0.896,2.58,5.066,6.625
1042,20.45,11.914,20.31,10.58,66.5,14.21,12.45,35.16,6.324,5.49,8.09,5.97
1043,50.44,36.9,22.0,66.1,24.69,27.86,16.55,40.3,24.67,31.53,35.84,45.56
1044,13.766,27.7,7.99,22.03,7.812,14.016,2.06,10.234,18.16,10.85,7.38,13.87
1045,22.64,6.55,8.4,11.15,18.62,6.305,4.824,5.355,6.68,8.44,2.527,3.604
1046,12.46,15.516,49.28,15.984,10.2,20.7,4.086,14.92,30.69,14.31,12.836,14.35
1047,17.16,10.875,38.25,9.04,14.586,20.88,0.8994,0.2847,21.66,19.73,5.438,2.855
1048,11.51,40.1,14.59,49.6,13.34,18.36,7.676,14.2,14.47,10.02,8.38,9.76
1049,13.74,16.94,20.67,10.67,15.95,20.17,12.625,5.926,0.8857,1.493,3.281,7.77
1050,7.117,20.9,5.0,12.086,2.541,22.42,5.484,31.81,15.57,8.86,6.586,5.85
1051,15.9,28.6,60.22,17.16,191.1,43.4,9.0,6.645,1.742,2.46,2.246,1.529
1052,37.97,66.25,49.4,53.03,36.84,79.44,94.56,26.5,10.734,7.21,14.664,14.07
1053,30.78,21.06,11.27,27.11,53.2,15.24,15.06,16.67,21.31,16.05,20.42,18.17
1054,20.39,158.1,9.664,163.2,2.264,44.94,4.875,3.1,5.96,13.93,53.97,58.9
1055,24.31,3.781,6.27,73.4,11.08,4.28,20.7,6.918,3.9,3.227,2.27,3.941
1056,17.7,46.66,20.19,24.45,13.16,56.84,6.684,10.26,14.16,10.945,27.1,30.36
1057,6.55,18.02,14.64,11.06,5.5,55.0,7.703,10.43,7.39,5.484,3.377,18.8
1058,15.85,93.3,6.57,27.67,8.21,21.52,13.26,3.082,6.383,10.13,18.2,46.28
1059,13.555,48.47,8.01,37.88,1.677,29.58,2.121,7.49,6.957,13.7,12.15,14.55
1060,13.44,14.57,10.85,10.836,14.71,9.19,9.95,3.81,10.15,7.008,3.604,4.723
1061,16.42,15.55,35.12,15.0,29.55,17.66,16.1,7.938,71.7,34.12,14.95,7.33
1062,27.62,296.5,254.6,246.6,203.8,267.5,57.94,536.5,491.2,155.5,41.06,15.51
1063,9.09,40.75,7.195,27.86,5.14,19.47,26.64,14.5,10.58,5.82,8.24,7.645
1064,7.684,5.773,38.97,2.297,29.12,12.59,13.555,7.88,11.836,27.39,2.975,8.336
1065,39.72,185.8,59.4,92.75,10.305,226.0,3.152,9.7,16.7,6.473,19.34,12.766
1066,23.23,21.3,61.84,19.73,50.1,40.88,4.47,2.994,2.188,3.596,3.936,9.586
1067,39.44,70.1,47.75,62.25,53.22,57.8,6.26,7.59,10.43,36.16,35.7,40.3
1068,11.695,24.81,7.434,21.22,7.758,20.53,10.14,13.4,6.39,5.883,9.266,12.586
1069,5.453,7.367,4.99,9.02,3.748,5.945,8.734,24.25,9.66,3.078,3.986,2.988
1070,10.08,12.39,12.57,12.28,11.984,13.73,7.375,12.305,8.37,3.617,8.836,5.914
1071,21.38,13.46,4.145,29.36,2.693,7.44,1.145,0.7188,1.0205,1.518,22.8,20.67
1072,5.098,25.06,3.68,10.52,1.163,10.84,4.156,23.14,11.45,1.585,3.21,3.426
1073,3.684,53.38,41.16,8.07,7.79,152.4,7.402,5.953,18.05,140.2,21.47,12.875
1074,11.7,4.965,13.805,3.934,20.45,8.43,20.9,5.13,3.121,4.395,4.977,4.383
1075,44.84,43.06,40.53,50.75,50.8,43.8,7.035,4.074,18.64,28.61,22.73,34.56
1076,4.266,5.863,14.37,3.496,7.98,9.914,21.66,10.875,20.12,10.42,3.445,5.316
1077,5.234,37.0,7.066,11.52,2.838,25.62,16.64,10.43,13.914,7.258,4.156,9.29
1078,16.81,35.47,22.66,18.9,21.92,15.01,48.06,19.22,24.03,21.45,18.14,18.33
1079,6.832,39.12,14.83,14.65,8.82,40.72,9.54,14.68,28.19,18.4,17.31,18.8
1080,10.82,56.4,18.47,56.12,10.0,31.7,18.7,13.875,13.77,27.73,23.55,43.28
1081,12.56,39.94,13.35,17.23,4.973,38.28,4.062,15.49,11.305,14.95,2.678,5.836
1082,8.8,9.86,7.35,8.84,7.062,18.66,4.79,6.62,6.855,5.867,5.082,5.383
1083,6.44,28.31,14.54,14.945,5.777,28.83,4.855,20.86,8.46,8.15,7.74,6.81
1084,11.81,9.58,36.84,11.08,23.23,8.95,5.94,3.053,4.86,11.625,8.99,3.338
1085,8.6,31.58,40.34,16.06,6.457,46.38,2.988,5.496,6.773,14.83,8.836,14.71
1086,28.16,18.61,11.35,24.48,12.52,13.984,27.75,44.78,14.67,16.44,24.38,16.05
1087,5.902,6.38,36.8,6.117,8.41,18.6,5.29,15.83,17.47,7.285,10.49,4.816
1088,29.66,42.1,10.73,21.89,19.77,18.31,2.713,29.88,24.17,29.42,24.02,23.78
1089,13.68,37.0,28.3,26.8,14.89,54.75,16.53,7.367,16.12,9.23,11.76,24.52
1090,8.445,22.95,12.91,18.06,1.669,19.03,3.191,3.66,6.582,15.914,26.16,18.14
1091,5.258,23.06,9.79,9.125,6.184,45.1,18.39,14.87,22.08,6.086,3.19,6.523
1092,38.7,10.75,11.51,71.2,15.45,13.39,10.25,14.88,19.89,30.11,42.28,35.47
1093,24.56,29.03,17.78,30.16,22.16,18.12,12.6,0.8647,25.14,21.28,15.08,11.59
1094,12.07,7.562,6.668,9.11,14.19,6.36,13.68,5.5,16.25,6.72,6.023,5.637
1095,28.88,9.12,6.93,13.93,11.52,6.22,5.84,11.03,12.65,3.354,5.45,9.86
1096,18.75,41.94,21.98,30.78,21.42,29.52,12.38,7.875,20.78,12.43,10.61,13.945
1097,7.87,22.34,29.03,10.39,6.5,71.7,10.61,12.17,7.94,9.31,8.33,17.55
1098,8.83,6.62,21.83,7.234,22.03,7.57,4.562,9.02,19.56,11.11,3.139,2.564
1099,9.414,18.56,83.06,13.875,20.17,33.16,4.79,9.5,29.48,5.574,6.316,6.69
1100,20.64,12.125,40.06,15.47,37.3,11.805,4.008,3.88,12.47,5.645,7.266,8.984
1101,30.9,12.75,18.52,15.88,49.84,7.227,2.238,4.516,4.7,14.31,11.46,6.88
1102,7.86,6.297,4.203,6.203,7.05,4.785,8.07,5.4,12.055,3.295,2.389,6.375
1103,21.58,6.727,2.838,10.06,7.41,4.93,4.84,2.645,7.117,4.117,2.572,2.723
1104,8.78,15.0,23.4,21.64,20.39,18.9,14.16,10.01,15.36,3.36,1.205,0.6357
1105,47.38,18.14,1.798,33.28,11.01,6.625,8.24,8.984,18.52,4.344,3.828,6.0
1106,67.56,12.48,13.82,26.39,70.5,4.582,3.64,4.715,4.973,16.06,11.98,11.3
1107,19.3,37.53,5.99,30.67,13.21,14.99,15.34,28.64,34.72,11.336,9.71,11.414
1108,3.297,25.05,25.88,6.63,7.996,52.4,8.7,2.037,3.354,3.572,9.58,25.56
1109,20.67,27.81,3.98,51.28,5.348,11.78,57.66,42.78,14.164,10.85,17.14,20.23
1110,7.953,4.78,11.25,4.625,17.05,7.754,6.26,1.956,2.285,0.781,1.542,2.615
1111,28.39,22.38,50.94,25.81,33.7,35.97,4.074,4.754,28.73,25.42,22.17,19.3
1112,19.16,4.93,5.96,10.49,20.56,6.234,11.08,2.195,1.769,2.475,3.531,8.53
1113,47.22,10.61,9.516,14.79,75.7,6.13,6.297,17.1,8.55,4.594,6.92,8.055
1114,12.37,3.832,43.66,5.68,34.53,4.13,9.47,12.71,13.8,4.98,3.877,4.285
1115,8.96,35.1,70.5,20.47,21.31,50.3,1.799,4.086,38.3,13.54,11.336,9.02
1116,99.1,96.75,29.69,99.3,93.2,108.4,23.19,21.8,149.9,60.3,32.88,32.28
1117,26.66,8.45,9.11,12.766,24.48,6.535,6.22,9.85,14.03,5.617,4.44,5.42
1118,18.12,16.02,19.73,15.97,22.89,11.32,3.803,10.18,9.88,9.53,9.47,8.47
1119,20.48,73.25,24.22,45.9,11.09,62.2,6.312,14.98,18.33,14.16,22.23,22.66
1120,22.73,21.92,23.44,24.97,27.39,17.92,5.953,6.562,17.92,45.6,17.4,23.05
1121,26.45,14.516,11.13,16.92,67.1,11.23,14.67,14.625,9.27,5.016,6.203,6.254
1122,20.5,52.88,47.12,43.1,8.984,247.2,5.12,6.883,3.121,31.2,16.98,14.53
1123,10.38,18.52,40.75,11.92,16.17,31.72,21.62,2.402,4.047,2.479,4.22,22.25
1124,5.938,20.5,21.02,16.38,6.004,22.77,8.484,4.355,3.47,6.656,9.18,7.58
1125,22.69,34.94,96.9,28.48,28.75,62.8,8.305,27.11,41.75,12.58,6.723,4.336
1126,7.77,29.66,66.0,16.6,18.36,51.1,13.3,12.48,16.61,13.7,11.57,7.9
1127,20.53,69.9,54.66,47.94,6.32,172.5,1.77,30.47,26.03,17.95,20.31,26.14
1128,6.91,13.09,10.78,8.3,5.457,17.86,2.438,44.16,8.98,4.008,2.23,2.02
1129,18.25,56.78,77.0,49.03,43.34,72.56,65.44,11.445,12.9,12.98,8.28,8.44
1130,7.773,35.7,80.56,18.33,6.96,67.25,12.02,41.16,3.828,8.36,3.791,3.365
1131,16.53,50.28,9.98,61.62,6.086,27.67,17.75,6.0,8.734,10.695,6.74,21.31
1132,30.14,15.88,20.7,21.39,24.22,21.98,3.936,3.945,4.55,9.836,8.55,12.19
1133,9.73,12.47,3.068,14.195,5.63,2.047,16.89,12.02,20.77,7.906,6.188,7.3
1134,10.17,40.8,10.77,29.48,3.973,50.5,30.61,13.75,36.12,16.72,13.95,13.484
1135,8.375,78.6,66.2,37.22,9.81,101.75,26.67,11.44,15.71,15.07,31.66,32.25
1136,18.05,32.28,17.75,39.97,35.56,16.83,22.92,5.066,4.844,5.664,17.84,20.12
1137,11.84,53.4,13.35,21.66,14.02,17.11,13.945,30.89,12.07,2.928,9.39,23.86
1138,17.23,14.39,39.0,14.234,21.2,23.66,3.406,7.465,37.66,25.53,7.926,9.83
1139,11.24,11.81,63.22,9.49,18.9,37.97,9.72,14.305,10.625,17.77,55.75,26.22
1140,14.56,27.92,64.06,18.55,16.14,55.0,43.5,5.684,48.47,29.92,16.55,58.8
1141,27.31,43.47,42.7,36.2,45.56,37.44,59.9,34.94,54.88,21.12,13.09,11.98
1142,16.83,27.19,22.25,19.28,37.8,18.77,8.05,3.436,2.883,10.76,13.18,31.8
1143,7.242,16.69,21.97,9.3,12.21,16.05,18.4,11.234,9.07,6.15,5.8,6.977
1144,19.1,41.6,43.38,21.39,15.516,82.94,43.6,11.47,15.914,8.98,6.055,8.2
1145,4.473,23.62,19.19,10.46,2.688,33.84,3.826,9.445,23.7,11.76,6.734,2.836
1146,25.88,11.31,9.87,15.64,35.06,9.72,4.21,5.48,13.65,11.12,6.39,6.355
1147,15.41,50.25,12.13,20.03,12.195,12.01,5.996,8.305,11.32,12.305,9.15,12.65
1148,11.78,18.06,49.62,18.17,15.44,23.97,2.537,3.713,15.04,6.656,7.863,10.41
1149,5.04,15.1,2.611,9.734,1.945,8.38,15.4,5.582,2.418,4.504,4.727,12.31
1150,40.56,22.75,29.22,24.52,62.72,20.72,11.125,9.67,11.79,12.984,14.0,9.41
1151,25.11,19.6,18.5,21.1,29.84,16.38,9.76,2.674,19.02,21.12,11.734,9.56
1152,3.477,8.94,2.158,5.0,4.098,23.3,2.512,21.25,42.3,28.92,4.844,3.527
1153,3.53,22.42,4.516,7.77,3.535,19.69,5.098,8.52,10.4,3.252,3.037,3.12
1154,18.47,85.06,5.617,43.28,11.164,26.12,6.07,25.62,20.14,53.7,22.61,24.36
1155,23.06,70.7,11.875,117.25,9.58,42.44,18.38,1.364,6.023,301.8,39.47,32.3
1156,253.4,37.06,89.2,125.94,152.9,46.72,61.2,44.6,56.66,46.78,49.4,64.94
1157,10.836,44.03,4.08,21.19,3.723,27.31,9.17,20.5,44.75,15.53,26.5,16.47
1158,108.3,130.6,38.16,134.9,18.94,90.3,5.61,3.645,61.12,75.9,75.3,72.1
1159,26.89,38.5,3.832,37.25,17.33,16.17,8.46,8.75,10.39,13.27,16.94,14.555
1160,4.438,25.11,17.5,11.97,5.094,57.66,9.305,5.75,4.555,3.732,3.564,3.299
1161,4.566,11.08,81.44,6.996,3.273,24.11,1.684,11.06,22.77,8.586,4.36,11.87
1162,16.11,15.64,14.1,16.81,13.52,15.32,2.861,9.31,7.96,6.93,9.0,8.89
1163,34.62,58.84,88.56,49.06,45.56,61.2,12.7,12.734,10.37,11.93,27.27,32.94
1164,10.79,15.2,41.16,12.055,8.984,19.56,9.88,14.49,14.4,7.367,7.98,8.44
1165,11.4,36.22,50.16,23.06,7.992,43.6,11.7,7.9,17.69,14.72,13.31,10.99
1166,20.7,7.484,9.27,12.09,31.11,8.01,4.56,1.998,6.742,10.83,7.473,9.875
1167,13.25,58.06,49.75,17.92,23.3,102.6,20.7,12.99,11.26,45.25,33.66,24.78
1168,9.42,25.56,41.84,16.0,8.56,39.1,2.135,2.496,2.965,5.777,3.176,4.023
1169,29.84,17.44,11.69,21.17,13.11,13.66,15.484,4.402,3.932,13.58,4.145,4.457
1170,33.4,115.25,14.53,66.1,11.03,104.8,7.816,13.65,11.62,12.27,32.66,10.15
1171,10.234,32.28,56.44,9.66,29.05,48.34,29.19,18.62,12.47,9.69,4.688,5.64
1172,11.31,15.57,21.11,17.03,13.305,15.086,1.434,1.061,2.074,1.893,4.848,12.02
1173,4.246,16.34,9.83,12.03,2.48,23.19,3.242,18.58,21.22,14.42,7.51,6.008
1174,8.06,13.73,85.8,14.57,32.22,34.06,12.79,8.69,7.773,3.137,4.043,3.785
1175,8.09,18.6,24.61,14.87,5.266,23.75,4.094,3.271,9.25,6.203,7.137,8.766
1176,19.98,34.88,3.416,48.5,4.824,7.473,14.65,8.67,6.965,6.438,8.33,8.85
1177,31.02,38.97,115.1,16.12,63.22,78.1,24.34,7.574,7.48,4.18,6.176,20.02
1178,16.31,30.56,103.0,14.125,33.25,51.53,15.21,15.93,14.83,8.73,7.566,5.125
1179,64.6,57.06,29.05,85.75,30.9,37.03,112.3,85.3,16.8,23.08,42.78,73.0
1180,10.79,16.72,9.39,14.695,7.3,14.76,8.29,13.79,13.07,7.277,6.17,7.46
1181,26.47,23.1,28.06,17.3,65.44,20.75,30.72,8.99,7.59,4.82,7.387,9.484
1182,21.17,74.44,9.516,45.56,9.86,22.95,4.758,19.05,44.0,51.97,61.7,59.03
1183,12.23,45.62,19.16,25.77,17.31,40.1,24.78,4.46,8.766,6.47,5.383,14.61
1184,11.93,32.3,3.229,23.94,5.066,4.08,8.66,15.5,15.36,12.72,15.52,19.02
1185,9.26,33.53,6.34,15.76,7.57,2.273,25.33,18.6,34.22,13.125,6.438,8.46
1186,10.54,50.2,13.63,24.67,2.637,65.94,4.992,11.05,10.305,6.56,9.19,8.875
1187,10.12,29.94,28.73,17.03,5.586,55.44,10.81,20.6,7.42,7.848,6.066,6.523
1188,7.883,9.0,6.02,29.05,7.707,4.695,2.13,26.16,20.19,10.51,7.863,7.887
1189,8.46,32.97,12.484,20.42,3.38,56.75,73.2,10.17,6.38,6.58,10.086,13.016
1190,11.336,18.44,35.12,13.555,15.09,19.19,44.6,15.28,18.25,5.344,4.13,3.553
1191,3.955,12.12,49.28,8.69,9.04,19.03,6.7,14.6,17.34,9.38,8.445,11.125
1192,26.48,6.188,5.887,11.805,13.47,6.06,30.19,5.094,13.336,7.055,3.062,6.293
1193,8.97,5.81,44.78,8.63,42.5,6.426,3.895,10.69,2.31,0.6094,1.463,3.29
1194,15.53,16.11,11.24,15.09,10.734,47.94,5.68,22.61,16.88,12.11,15.89,14.66
1195,17.05,20.94,19.42,15.89,62.12,18.98,2.555,13.51,21.39,10.625,10.65,16.3
1196,13.484,5.258,11.01,4.3,6.402,7.996,2.654,1.695,9.086,4.6,6.42,9.3
1197,11.71,5.543,17.77,6.992,21.92,10.484,18.7,5.25,7.684,2.76,2.865,2.814
1198,2.137,1.147,6.97,1.783,2.46,3.734,3.018,5.66,10.17,1.932,2.543,1.755
1199,6.008,48.4,2.031,14.88,5.027,13.37,9.375,15.6,23.6,20.73,4.53,7.7
1200,32.03,57.75,95.3,40.34,14.695,67.56,30.39,12.07,13.78,14.9,12.52,13.734
1201,8.36,7.48,16.23,7.844,15.39,13.91,6.777,9.34,16.6,4.055,5.83,6.69
1202,4.777,5.395,1.958,13.15,3.113,1.755,7.85,4.25,3.441,15.59,22.19,7.89
1203,14.234,33.5,11.836,18.53,13.38,18.58,12.09,2.432,26.58,26.11,17.9,14.195
1204,1.639,62.66,5.92,2.97,2.703,24.06,11.72,22.5,28.39,18.11,5.883,2.02
1205,38.5,20.33,42.78,30.06,48.78,17.86,12.3,9.87,14.125,11.164,10.36,11.13
1206,16.33,27.53,59.6,23.7,41.72,36.84,19.02,5.28,3.63,5.027,6.51,18.97
1207,6.7,12.7,35.62,8.93,17.38,24.5,20.81,10.375,30.88,14.63,9.45,6.496
1208,13.88,32.97,30.05,18.95,14.66,34.3,5.832,3.193,9.875,9.34,6.81,8.25
1209,39.78,31.05,46.12,24.72,46.84,65.3,7.586,47.16,50.8,12.97,9.16,32.94
1210,9.22,19.4,13.24,18.64,18.2,17.33,3.645,3.348,13.5,2.936,2.52,6.453
1211,14.27,6.88,5.91,8.67,40.9,6.297,9.05,1.813,3.312,12.85,7.32,6.668
1212,32.88,27.05,29.12,30.05,28.78,12.625,11.414,3.76,6.164,13.92,19.45,19.73
1213,17.25,22.25,23.06,20.56,16.12,23.12,3.645,21.47,20.36,9.61,7.797,9.484
1214,13.67,20.25,45.38,18.61,14.48,105.2,12.43,5.5,21.2,17.88,3.92,3.973
1215,4.305,16.92,3.982,4.797,2.389,6.715,20.78,8.195,10.586,11.305,2.184,1.65
1216,30.1,52.9,26.58,38.88,15.7,56.25,7.72,11.87,24.1,25.03,24.64,35.28
1217,11.89,26.17,22.0,16.2,18.25,34.62,19.48,6.086,16.95,1.614,1.787,3.67
1218,15.2,29.23,47.25,22.52,5.074,34.6,2.201,18.33,12.484,5.82,2.498,1.59
1219,5.633,22.25,4.58,13.49,2.041,10.984,8.85,9.06,2.979,3.65,4.004,15.65
1220,9.336,20.14,36.5,14.95,9.56,26.64,11.805,13.47,14.69,13.31,11.3,7.957
1221,33.56,58.22,62.78,49.5,17.14,59.53,3.541,43.7,17.81,11.66,19.19,18.94
1222,5.535,24.25,6.926,10.81,2.918,30.08,10.91,6.207,6.996,4.57,2.71,2.14
1223,5.836,10.59,6.59,8.32,6.637,6.965,1.603,7.78,4.777,0.599,2.418,3.375
1224,3.266,15.23,91.75,8.02,13.46,38.12,10.3,8.46,9.7,8.45,2.332,7.42
1225,11.57,14.12,46.66,13.914,9.49,22.12,14.945,9.13,5.617,7.703,9.83,7.82
1226,17.73,8.07,4.72,11.72,6.438,8.26,12.45,23.25,15.66,7.38,7.2,8.63
1227,34.75,58.25,58.1,54.38,24.4,57.03,44.25,14.32,31.95,30.88,32.4,54.22
1228,13.59,43.5,79.94,23.1,18.19,91.3,24.61,20.14,2.877,1.67,2.908,85.94
1229,15.82,18.81,18.97,19.38,5.285,23.08,3.848,10.73,23.98,17.89,11.234,7.254
1230,4.934,11.4,22.44,6.965,6.48,22.61,3.459,3.016,18.06,4.68,0.8086,1.563
1231,41.9,100.25,3.125,129.8,12.16,13.945,6.43,10.93,36.8,32.66,16.31,20.25
1232,11.266,0.6597,5.434,2.168,129.5,1.308,3.098,7.754,6.926,4.36,4.043,4.44
1233,10.11,115.3,6.87,39.06,3.646,101.2,26.3,23.44,34.6,44.06,23.55,24.23
1234,28.95,176.6,21.66,155.2,6.566,89.7,51.5,10.32,67.9,20.27,16.3,25.27
1235,17.95,11.53,82.25,15.4,24.64,15.49,14.41,17.33,14.27,25.78,11.44,5.715
1236,57.22,35.78,2.555,80.4,16.72,8.53,2.432,4.06,13.31,73.75,106.2,32.72
1237,19.25,55.8,27.1,31.31,21.88,49.0,11.49,3.059,14.08,81.44,58.8,39.22
1238,5.35,8.445,2.625,18.66,2.793,3.324,2.432,1.526,1.512,6.74,15.59,4.74
1239,66.2,66.6,6.062,70.94,32.97,45.3,10.6,148.8,166.6,52.7,48.88,51.56
1240,20.06,44.34,26.06,35.75,19.66,42.8,8.61,14.414,33.56,42.56,32.12,37.66
1241,12.52,17.34,40.97,6.883,50.44,29.16,9.16,4.977,6.406,5.375,5.027,6.24
1242,29.97,24.02,45.5,24.83,54.75,31.16,15.516,20.75,53.75,14.29,11.64,12.34
1243,50.84,26.42,4.715,27.2,23.03,11.23,9.414,15.65,13.21,13.805,15.22,16.16
1244,25.84,30.22,23.16,27.7,31.44,25.4,13.2,8.12,7.71,9.85,16.02,27.08
1245,11.2,17.23,12.56,16.28,12.69,17.05,3.043,3.635,12.93,6.99,7.453,6.703
1246,21.9,11.43,6.348,14.84,18.92,8.94,18.64,5.387,10.34,5.273,8.18,9.58
1247,5.652,14.55,5.832,6.992,4.777,14.06,5.48,12.95,11.58,7.727,5.867,4.598
1248,13.516,56.66,55.97,32.75,87.94,56.44,56.22,4.434,10.02,15.93,6.836,5.055
1249,28.84,81.2,4.79,47.9,11.984,85.1,9.82,17.53,21.11,16.03,15.62,27.78
1250,11.086,39.03,39.22,16.89,15.984,39.8,44.53,14.17,13.0,10.1,12.15,11.8
1251,186.9,12.1,165.5,99.3,246.8,62.22,5.68,28.06,84.9,23.14,25.06,30.23
1252,25.8,13.13,5.133,19.11,33.16,6.703,1.514,5.508,21.8,8.664,6.973,6.688
1253,14.8,35.7,36.62,21.33,15.445,45.06,19.84,10.875,19.9,18.2,14.76,18.89
1254,14.98,26.6,5.95,28.3,7.305,9.375,15.09,5.37,8.77,8.484,12.66,14.71
1255,13.77,31.88,58.94,16.83,16.45,69.5,3.615,1.931,2.604,5.88,7.7,10.12
1256,5.934,2.965,3.057,3.44,34.22,2.645,2.506,5.805,2.557,2.771,2.22,2.346
1257,8.695,40.88,10.375,19.7,4.887,20.66,7.65,16.58,25.34,19.12,12.9,11.8
1258,8.05,23.02,108.94,13.73,16.0,51.56,16.92,8.586,16.47,5.785,6.367,7.715
1259,22.06,29.38,16.97,26.83,6.7,20.62,21.48,17.73,9.34,15.38,19.95,25.3
1260,22.4,8.08,4.844,9.74,3.914,8.055,58.16,13.38,7.54,3.512,3.742,12.3
1261,50.56,31.7,25.06,31.33,80.2,22.8,77.9,23.92,38.62,7.074,6.3,11.91
1262,12.07,72.2,153.0,35.78,54.0,121.7,10.2,8.5,14.05,9.07,10.1,11.51
1263,22.62,30.98,35.2,21.4,45.78,33.7,7.305,3.121,14.63,5.477,3.268,5.32
1264,8.88,16.52,4.742,16.89,6.586,11.29,2.611,2.9,9.38,2.955,5.203,11.76
1265,19.98,10.44,45.44,15.64,27.38,24.4,25.27,15.055,18.66,8.99,7.24,9.48
1266,16.78,5.4,61.78,7.86,33.53,19.4,15.914,11.83,4.543,3.424,4.332,9.03
1267,8.42,8.86,38.7,7.496,14.83,25.38,3.227,9.79,15.01,5.832,4.83,6.387
1268,15.89,27.22,40.75,21.53,17.48,35.06,28.19,4.844,15.375,9.81,8.58,6.406
1269,15.75,7.832,18.53,8.125,93.8,6.83,10.484,6.477,12.86,4.81,4.13,6.1
1270,35.56,6.5,3.953,11.695,12.55,5.582,2.938,5.402,24.05,12.125,9.41,5.547
1271,15.1,10.12,17.98,10.41,15.336,12.2,36.7,4.383,4.9,4.61,5.547,6.008
1272,11.94,5.42,10.02,8.95,7.332,7.38,35.28,4.582,2.668,3.557,4.21,5.727
1273,23.73,12.664,14.83,14.26,17.17,10.016,5.47,3.674,7.58,7.08,4.754,7.082
1274,31.36,13.84,10.94,24.38,8.64,11.414,10.93,15.28,14.79,24.22,39.94,17.73
1275,14.46,8.04,5.656,7.965,23.73,6.223,1.847,1.41,6.656,5.035,3.709,5.324
1276,30.78,48.28,8.72,45.84,13.11,22.1,7.24,6.625,10.93,13.23,9.336,15.69
1277,61.66,95.8,41.06,70.0,61.6,72.4,1.463,0.691,2.002,5.5,105.2,53.94
1278,20.7,34.2,33.06,25.94,18.1,57.22,27.81,6.06,20.14,21.8,18.44,19.45
1279,36.9,31.5,39.97,31.12,69.7,37.3,3.28,3.201,27.34,34.6,46.38,35.84
1280,4.973,32.56,10.625,8.72,7.38,73.56,7.17,21.48,9.805,4.75,3.566,1.998
1281,79.0,47.4,28.89,67.2,47.5,34.03,12.96,6.47,14.83,10.43,15.79,10.65
1282,32.47,19.64,14.61,20.45,17.78,18.8,3.15,2.35,11.62,10.625,6.3,7.316
1283,6.027,45.16,3.178,28.16,0.901,13.24,8.38,12.51,16.38,16.25,21.06,37.0
1284,16.28,5.992,9.7,9.18,12.81,3.994,7.543,9.99,15.305,11.76,11.586,9.625
1285,26.17,32.6,47.0,27.11,28.72,30.61,4.586,4.99,7.918,8.2,12.09,9.72
1286,11.71,24.0,39.1,14.21,11.39,33.2,4.85,7.75,7.723,8.08,12.46,11.65
1287,15.195,47.78,56.72,19.53,30.1,75.7,23.27,21.75,12.59,5.742,7.047,8.17
1288,21.81,11.03,7.88,15.234,28.88,15.4,2.865,4.867,10.586,15.91,12.1,19.19
1289,15.805,25.12,20.08,14.086,17.69,17.95,7.438,6.676,12.445,3.602,5.77,7.867
1290,6.53,27.62,22.38,18.5,2.684,26.92,11.61,15.27,32.84,13.945,8.78,5.844
1291,22.19,16.22,7.07,11.74,8.164,7.984,20.7,4.004,9.22,5.203,3.588,7.11
1292,31.8,31.42,51.16,29.5,24.38,32.6,8.266,3.727,24.05,17.17,11.51,18.5
1293,30.62,22.77,25.39,26.34,35.66,20.33,28.55,3.996,4.652,10.06,6.785,9.95
1294,17.02,32.06,23.44,18.9,25.45,40.25,2.617,10.81,13.12,8.555,10.66,11.71
1295,11.55,15.516,47.4,13.01,18.62,23.11,19.48,11.414,15.21,13.13,7.785,5.96
1296,16.8,9.26,37.56,10.33,42.97,9.734,7.96,4.77,16.23,5.25,5.133,5.004
1297,17.17,30.31,17.28,25.9,12.15,14.61,9.15,8.51,4.33,3.52,4.617,5.645
1298,8.586,16.39,4.348,7.2,2.441,10.73,26.25,1.516,8.26,1.905,1.17,4.113
1299,33.97,33.16,19.0,30.58,63.0,22.28,34.8,5.523,20.27,8.94,11.56,14.77
1300,27.47,9.83,3.008,15.836,3.047,6.03,1.969,2.521,16.17,5.797,3.342,3.535
1301,6.793,5.72,10.93,4.957,18.3,7.01,5.336,28.17,4.426,3.63,4.08,3.018
1302,4.652,30.64,53.34,13.43,8.39,52.22,2.31,26.1,7.707,9.62,10.33,11.93
1303,13.875,20.75,7.4,13.57,11.86,64.75,6.145,3.729,9.13,5.54,5.81,7.297
1304,21.38,27.17,44.78,19.97,8.516,36.72,11.445,5.23,7.445,10.81,18.48,33.4
1305,23.84,19.84,19.72,21.38,62.0,14.28,17.92,10.945,10.695,6.465,6.85,7.586
1306,13.64,9.27,41.72,8.336,14.055,13.945,2.498,1.267,28.05,5.863,5.496,4.824
1307,8.92,10.2,19.8,8.85,12.51,11.305,4.008,3.678,10.94,6.08,10.21,7.68
1308,6.656,24.16,66.25,10.92,25.64,47.8,7.86,10.81,5.492,5.21,7.402,5.332
1309,16.73,15.516,19.36,18.95,29.25,15.125,6.83,9.914,18.64,7.09,6.96,9.57
1310,18.62,7.836,3.16,9.3,6.24,3.902,5.09,3.232,13.67,3.072,3.594,4.637
1311,29.67,26.11,34.62,21.89,76.7,22.62,27.89,11.11,20.62,10.12,9.8,10.39
1312,28.36,17.77,6.86,29.69,13.984,14.06,8.945,4.953,6.64,6.246,8.66,10.49
1313,42.97,10.27,5.71,18.78,7.32,6.77,4.605,7.824,18.69,14.87,10.93,10.75
1314,11.664,26.05,37.4,17.47,43.75,41.16,5.664,4.203,17.03,19.0,29.16,33.56
1315,12.59,16.22,25.61,11.02,20.48,12.3,12.23,8.19,12.29,7.035,10.42,14.79
1316,11.836,110.7,62.28,39.47,8.7,199.2,6.16,16.25,33.38,21.84,18.77,21.62
1317,30.5,17.42,18.69,22.27,27.94,21.08,12.06,7.54,16.19,10.81,12.7,15.06
1318,10.33,6.89,5.934,7.32,20.52,6.703,3.436,1.772,2.895,12.4,1.792,1.481
1319,5.207,21.86,5.08,10.14,4.37,9.05,2.957,10.14,6.61,10.52,5.984,27.42
1320,58.6,36.4,8.36,63.88,24.36,14.37,9.51,22.8,25.66,31.06,41.22,39.9
1321,4.44,29.92,3.762,6.445,3.56,8.92,7.566,24.73,17.22,10.26,10.35,9.766
1322,18.66,21.62,68.2,19.47,19.22,21.9,3.365,6.016,18.19,9.73,10.305,18.22
1323,55.94,35.62,31.16,49.03,48.5,27.56,20.98,2.48,6.918,26.16,43.12,83.0
1324,15.09,20.4,19.38,18.47,18.33,21.52,2.096,3.084,11.4,6.4,5.68,6.445
1325,20.0,62.94,13.89,39.12,9.2,26.45,5.31,9.016,10.3,14.586,17.1,36.97
1326,5.16,21.42,1.343,14.48,2.969,5.223,11.336,31.55,18.05,7.96,13.0,14.48
1327,18.27,45.88,69.3,32.9,19.2,41.6,12.12,10.2,14.95,4.363,3.318,14.305
1328,28.98,40.6,19.86,37.78,15.11,29.52,6.258,1.106,12.62,5.273,7.89,9.06
1329,24.36,52.97,6.906,38.44,10.555,90.75,1.885,14.65,15.55,25.27,40.88,42.34
1330,4.086,37.3,46.94,8.52,5.47,126.75,12.58,13.99,6.367,12.7,12.445,9.89
1331,9.51,40.66,72.6,20.97,16.81,47.9,3.398,39.78,20.7,4.664,4.54,12.9
1332,17.8,50.75,12.28,29.05,6.52,95.8,20.39,5.258,5.41,4.39,3.4,11.945
1333,42.3,10.26,10.62,14.29,23.42,9.24,9.55,6.15,5.43,6.973,8.94,16.75
1334,27.0,20.2,50.34,23.58,55.22,30.27,36.44,7.97,10.54,5.45,5.938,15.836
1335,5.656,26.23,5.4,12.805,1.975,32.53,17.02,20.84,16.88,15.18,28.67,33.78
1336,10.516,20.45,3.361,48.1,1.932,6.176,4.86,1.566,1.545,7.008,3.28,16.34
1337,8.88,23.86,5.527,13.234,5.41,26.5,6.074,5.395,13.12,23.45,13.81,8.49
1338,69.44,12.44,12.29,23.84,17.08,11.49,8.516,7.387,8.75,2.752,15.62,9.89
1339,19.25,22.98,88.7,27.72,31.89,13.4,9.55,2.264,19.1,13.24,9.7,15.164
1340,12.32,20.39,10.98,15.72,11.05,29.39,4.6,12.69,18.38,6.73,2.928,4.94
1341,9.266,13.39,3.137,11.3,4.688,11.81,5.414,3.52,9.9,26.67,13.34,9.18
1342,12.04,48.9,28.19,26.1,13.09,44.16,27.86,11.09,8.7,10.83,10.805,16.61
1343,16.89,20.95,72.7,20.3,25.55,18.0,4.566,8.33,40.5,20.64,9.555,7.875
1344,14.164,7.12,7.855,7.47,29.61,7.008,17.77,1.119,9.164,7.363,6.777,5.906
1345,11.2,37.94,51.44,19.11,11.086,105.06,3.443,7.18,23.1,38.62,71.2,19.58
1346,21.22,12.516,8.14,12.26,83.8,11.03,7.867,26.27,22.53,8.14,3.828,4.9
1347,11.945,28.11,18.25,13.21,11.79,97.06,31.88,16.02,23.2,24.84,17.77,9.56
1348,21.03,26.53,9.59,28.52,5.332,19.81,3.186,5.023,7.95,6.562,6.496,8.6
1349,14.76,28.9,31.84,23.2,19.42,30.31,5.145,6.52,13.266,15.15,22.44,21.12
1350,24.58,33.28,36.78,29.08,22.7,61.03,6.938,19.8,26.22,23.84,16.33,19.28
1351,11.7,40.7,17.55,22.27,9.555,129.4,14.95,13.305,17.44,50.7,17.25,10.97
1352,21.9,37.0,56.9,27.66,21.67,42.28,3.209,20.08,18.42,24.12,13.14,14.7
1353,11.15,13.484,31.67,13.695,13.8,10.234,6.562,3.18,4.58,7.777,6.758,8.65
1354,32.7,36.25,42.88,18.81,62.5,35.38,28.45,31.9,13.83,15.07,12.18,6.92
1355,9.62,45.28,101.25,25.48,12.81,72.75,12.31,7.285,30.3,11.66,8.086,11.78
1356,7.7,65.4,8.59,41.97,3.613,28.52,5.582,53.4,29.27,13.44,14.63,23.02
1357,2.16,25.66,0.8794,11.76,0.4912,5.46,7.85,15.15,9.84,4.723,5.12,3.902
1358,32.06,21.2,16.56,21.5,24.94,19.97,18.9,1.692,5.3,15.49,8.82,12.35
1359,8.7,18.42,39.62,10.77,22.14,26.9,10.06,11.84,10.445,5.277,5.496,7.926
1360,10.81,11.42,53.06,7.895,17.47,21.27,6.516,38.53,17.4,4.52,4.523,5.105
1361,19.77,9.98,14.19,15.83,18.05,10.29,3.164,30.61,39.84,8.99,4.965,7.887
1362,10.15,19.25,16.95,15.37,37.6,20.62,13.74,2.238,25.84,12.35,7.496,5.91
1363,12.41,18.83,61.44,19.08,33.75,21.9,10.16,9.56,12.79,10.23,5.844,6.562
1364,14.75,6.62,7.926,6.562,17.7,5.367,1.605,1.576,3.555,5.605,1.281,2.074
1365,5.29,43.6,32.7,8.9,5.883,78.4,2.365,10.3,10.695,10.57,4.54,4.414
1366,20.47,16.06,3.951,226.0,5.945,5.38,0.951,1.14,1.332,1.141,39.06,5.94
1367,24.72,61.66,21.4,45.38,21.81,49.47,40.03,10.055,13.49,13.48,11.86,20.9
1368,14.164,48.9,63.5,26.14,34.94,63.34,41.22,11.055,35.53,34.72,26.56,24.55
1369,5.297,15.03,16.89,9.49,8.77,26.06,2.098,3.568,15.5,4.223,1.226,2.83
1370,55.78,90.0,67.1,62.94,74.7,101.25,5.43,3.057,6.195,7.66,96.7,23.17
1371,26.83,38.8,33.22,31.69,15.27,48.3,11.15,9.22,17.62,19.12,18.1,21.25
1372,24.11,68.06,35.34,35.06,21.92,57.5,3.24,2.527,13.27,15.91,14.07,13.59
1373,9.58,29.75,113.44,16.95,9.805,59.88,6.445,8.64,20.88,10.23,24.97,32.56
1374,32.22,3.871,6.15,10.01,38.9,1.578,10.71,53.72,253.2,6.254,6.766,6.465
1375,26.02,9.89,15.29,19.45,22.28,9.08,25.08,13.76,18.48,10.81,7.71,9.26
1376,16.36,52.84,64.06,26.58,18.7,103.2,27.88,7.17,5.71,10.05,11.67,9.25
1377,8.63,38.25,5.96,16.48,4.67,25.4,4.934,14.31,9.37,16.86,9.48,15.17
1378,10.91,25.25,9.59,12.87,10.01,18.03,4.113,2.938,2.787,2.076,1.921,9.66
1379,28.73,37.88,24.14,38.66,8.62,30.5,34.94,15.33,27.44,10.36,16.55,24.78
1380,10.45,12.4,14.445,11.53,10.12,19.08,3.45,12.89,14.06,8.77,8.16,4.7
1381,25.38,12.414,5.86,15.75,21.17,12.75,14.695,13.984,28.86,9.7,9.26,10.4
1382,9.22,6.207,55.22,7.812,13.89,10.63,3.896,30.31,10.78,10.87,4.773,4.44
1383,14.234,9.805,2.799,65.7,3.934,3.357,4.48,12.836,8.79,3.727,7.434,14.375
1384,4.984,19.47,54.4,9.93,4.387,46.62,20.22,21.77,52.12,3.006,7.055,2.594
1385,15.805,14.164,6.8,9.04,3.344,10.63,3.938,1.274,12.27,4.695,3.13,3.527
1386,6.934,32.84,9.836,12.26,8.15,20.62,2.479,2.793,5.938,6.62,2.38,1.783
1387,16.1,35.22,39.06,24.5,27.16,39.97,3.262,4.484,7.195,7.547,13.96,17.03
1388,14.25,39.8,68.1,28.8,7.875,43.03,6.7,10.586,7.492,10.516,9.58,14.18
1389,20.6,38.16,62.75,22.38,16.61,96.9,9.055,15.625,10.21,7.72,6.3,7.055
1390,4.305,3.793,0.9414,12.23,0.538,1.867,2.486,1.166,1.845,1.564,2.662,4.13
1391,7.82,28.22,42.28,15.58,3.607,112.75,6.43,16.17,19.33,18.88,7.434,12.93
1392,11.45,38.44,10.56,23.7,3.402,17.27,7.477,2.408,3.566,13.9,11.56,11.836
1393,14.04,19.4,37.66,20.45,45.1,24.39,8.484,14.836,14.25,10.8,5.008,7.27
1394,31.19,27.14,18.78,42.06,29.33,14.445,5.66,8.97,12.445,16.39,11.23,9.49
1395,24.9,26.89,57.25,25.97,17.42,31.39,9.95,14.24,21.88,22.81,27.12,11.195
1396,14.06,48.7,4.547,34.1,3.314,28.89,6.8,6.89,51.12,33.66,225.8,49.94
1397,20.08,49.34,20.42,39.62,39.5,52.44,8.69,8.19,9.125,7.492,5.004,7.195
1398,4.45,6.414,1.793,53.5,1.98,1.781,2.12,0.9316,1.316,2.082,31.52,14.66
1399,23.66,36.47,37.5,19.28,32.3,43.34,2.922,3.4,8.87,9.805,12.87,13.555
1400,3.604,11.86,30.14,6.14,2.89,28.56,12.11,3.207,5.727,2.594,3.316,16.83
1401,11.18,64.25,44.8,29.48,18.33,77.6,2.38,5.64,18.97,17.45,18.9,18.11
1402,1.516,2.71,1.436,2.096,1.151,1.286,1.766,1.587,3.8,3.504,0.7524,2.236
1403,15.05,12.875,20.66,12.25,14.73,19.17,12.016,12.87,15.79,16.23,1.561,0.944
1404,24.1,46.6,60.1,25.4,20.81,38.2,10.23,10.49,18.36,33.1,34.75,8.195
1405,13.8,29.84,29.75,22.67,12.41,38.4,9.72,4.81,5.46,5.062,3.432,6.84
1406,11.18,21.45,25.22,11.97,12.04,51.9,9.086,8.54,4.414,2.992,2.53,2.02
1407,7.21,16.47,5.56,10.695,7.33,20.84,5.617,10.45,8.984,4.805,3.938,8.53
1408,23.4,12.89,10.336,21.56,4.42,18.97,13.2,7.223,18.61,9.84,8.125,5.215
1409,8.71,45.38,8.99,24.75,10.164,48.16,5.12,9.44,11.84,6.27,9.0,45.06
1410,39.47,8.84,1.954,23.2,8.75,2.742,6.816,4.77,7.01,4.6,10.586,9.34
1411,28.34,207.4,44.7,67.56,30.34,237.4,29.12,30.33,34.62,32.38,22.8,26.17
1412,8.27,23.89,92.3,9.75,6.617,47.34,11.68,5.51,15.53,20.62,13.25,42.72
1413,26.55,48.3,91.5,53.56,64.5,69.7,60.1,27.6,43.4,19.98,32.03,24.12
1414,77.94,43.16,10.36,65.44,46.22,27.22,39.97,10.41,10.86,53.62,12.83,39.4
1415,10.08,34.9,4.406,35.34,6.664,14.805,4.8,4.594,4.77,7.008,10.39,43.25
1416,18.77,5.555,1.214,32.12,3.416,1.984,0.848,0.5063,0.534,0.7783,12.305,4.5
1417,22.14,34.06,29.94,23.8,18.42,49.47,3.346,4.848,14.31,9.03,9.15,8.27
1418,9.41,10.57,2.717,29.89,3.266,4.52,7.047,4.97,5.26,1.249,10.695,5.152
1419,9.055,32.2,57.2,16.75,20.34,36.28,19.31,9.5,23.66,15.72,11.68,9.766
1420,6.324,9.74,22.89,6.23,7.918,8.555,2.55,54.12,32.44,4.617,3.219,3.66
1421,6.61,30.39,11.78,13.945,4.88,48.2,7.176,16.06,16.75,13.3,5.465,15.13
1422,14.34,27.31,4.8,22.61,9.88,2.799,2.027,11.13,17.64,19.05,12.44,8.68
1423,19.12,12.125,21.39,24.77,12.82,16.73,30.25,14.21,9.664,11.16,22.58,14.81
1424,7.344,32.0,13.7,16.84,7.97,46.75,3.602,9.27,16.62,33.97,8.234,7.086
1425,16.08,13.414,7.36,14.85,4.82,10.8,21.67,17.89,13.8,11.8,13.055,7.953
1426,17.38,22.12,40.22,14.2,22.08,79.94,2.225,1.561,1.471,4.3,9.57,8.7
1427,41.53,27.72,10.24,34.7,61.5,19.81,4.473,6.992,20.89,8.625,12.164,13.74
1428,4.15,50.66,55.62,26.42,26.92,67.6,2.572,8.89,19.61,11.83,3.207,4.117
1429,11.47,18.22,6.625,15.5,7.33,8.57,10.1,9.22,11.87,7.43,2.875,3.752
1430,36.38,32.62,72.3,37.56,39.66,35.28,5.855,5.094,47.03,9.34,6.117,6.535
1431,7.418,8.27,32.1,6.457,12.14,10.39,20.83,10.055,3.607,1.047,2.168,3.621
1432,68.0,9.875,29.98,12.92,33.9,14.266,1.287,1.581,1.787,4.516,19.69,4.863
1433,20.17,78.06,7.176,44.2,5.168,34.47,3.82,5.633,10.84,64.56,25.36,13.87
1434,20.94,60.9,127.0,35.03,27.11,47.34,125.7,13.23,17.9,23.19,5.184,12.34
1435,6.418,13.33,7.727,3.059,7.863,12.78,3.652,4.01,9.65,33.9,4.62,5.145
1436,4.176,5.168,2.396,15.66,3.027,2.365,13.875,4.086,11.72,66.6,3.174,2.959
1437,20.72,16.42,19.44,17.7,58.22,9.49,4.918,2.244,2.234,4.88,7.43,8.516
1438,3.627,7.54,6.36,4.805,5.375,10.234,5.176,3.488,5.527,7.855,2.025,2.117
1439,36.4,27.53,39.25,25.16,42.62,39.88,2.746,2.4,3.771,17.05,7.59,14.91
1440,17.36,36.22,16.84,23.2,14.64,56.75,2.943,1.295,2.338,9.15,19.19,19.16
1441,13.84,31.45,79.4,27.56,18.22,40.47,4.258,19.94,25.89,20.83,17.69,20.47
1442,24.66,22.98,25.23,18.11,32.66,20.1,8.31,12.63,5.566,6.336,4.703,6.355
1443,13.66,6.09,29.1,8.21,10.11,13.46,22.33,12.914,13.875,11.12,14.25,14.695
1444,10.625,86.9,19.5,51.22,3.264,52.84,1.73,1.711,3.92,14.66,12.13,10.52
1445,12.445,17.7,21.22,12.734,13.65,35.88,3.83,11.03,17.0,9.64,6.914,8.24
1446,16.14,45.3,2.615,25.92,9.266,35.6,2.291,19.58,20.81,38.75,16.19,21.1
1447,11.945,28.28,1.883,24.08,3.69,9.18,2.379,4.36,15.195,19.08,20.88,28.98
1448,33.88,2.078,11.48,5.215,43.97,4.812,13.46,8.67,14.07,12.07,1.254,8.84
1449,40.94,90.9,81.44,71.56,20.22,92.44,16.86,18.62,16.19,31.23,31.12,33.8
1450,2.94,2.613,9.016,2.764,2.752,6.58,5.19,7.17,10.57,6.29,3.01,1.934
1451,40.8,51.38,49.28,59.5,13.35,75.25,8.61,32.12,39.22,32.84,32.4,41.34
1452,19.56,25.89,17.03,15.875,17.61,30.08,9.11,11.75,11.57,8.56,11.38,10.23
1453,12.78,22.58,5.18,17.92,7.34,39.44,3.701,3.463,21.25,32.06,9.89,10.17
1454,17.78,30.42,10.69,25.64,9.625,36.97,5.5,4.23,5.63,11.21,3.182,3.7
1455,5.53,9.15,34.4,7.426,4.824,11.31,21.12,19.1,9.66,21.02,8.81,5.99
1456,21.45,21.52,18.58,19.64,24.27,12.305,16.08,7.98,10.766,4.45,11.31,12.2
1457,32.8,2.69,2.203,7.812,9.09,3.027,5.35,2.9,8.9,21.83,3.688,4.027
1458,10.07,49.62,85.3,23.73,17.69,84.06,19.77,3.441,15.23,16.64,7.09,8.64
1459,10.39,50.72,4.184,30.36,1.916,23.25,3.482,3.238,6.598,17.14,24.0,25.45
1460,21.03,8.336,7.266,34.5,11.8,6.113,20.75,2.611,2.715,3.873,5.824,9.6
1461,16.27,20.8,44.22,20.42,19.8,20.48,3.193,4.484,15.08,7.484,6.508,6.504
1462,4.33,6.81,1.825,57.62,0.8003,2.758,1.959,4.184,8.23,9.52,4.49,6.133
1463,27.08,24.66,1.101,53.8,6.89,3.361,4.83,2.562,1.774,5.715,16.11,27.97
1464,35.75,109.5,5.78,81.7,6.266,31.11,3.598,10.44,15.26,25.98,55.75,82.5
1465,36.38,122.56,195.5,85.0,57.62,90.8,45.97,59.25,42.06,45.34,51.38,56.94
1466,16.14,18.53,17.08,18.0,11.3,18.34,6.797,12.484,18.05,21.31,7.574,8.25
1467,23.28,33.38,26.48,24.52,27.3,31.53,13.13,5.02,8.94,11.086,12.625,18.75
1468,7.965,7.17,20.81,7.848,11.5,17.73,0.7427,1.395,1.683,1.97,0.7603,2.873
1469,29.94,44.25,36.0,42.12,49.6,45.9,25.8,21.75,43.22,16.81,16.4,17.97
1470,59.53,156.8,51.94,128.4,31.08,40.56,5.074,2.275,8.16,14.6,38.78,71.94
1471,14.945,21.83,3.5,33.94,3.113,9.69,6.867,9.34,12.78,12.25,12.48,16.62
1472,25.2,28.16,59.6,14.58,57.25,48.66,9.86,3.047,55.12,11.09,10.86,44.53
1473,4.234,99.6,4.047,32.7,3.816,25.4,3.14,4.145,4.008,54.4,19.94,13.32
1474,7.94,7.906,57.78,7.117,8.586,8.195,1.623,8.13,8.64,6.08,6.96,6.875
1475,35.12,35.03,28.5,33.94,31.67,31.19,14.8,6.887,8.67,4.207,7.215,19.6
1476,36.38,24.66,37.66,20.52,37.8,23.42,102.06,32.03,11.89,9.85,9.05,13.336
1477,50.4,72.75,28.45,62.25,44.25,66.9,4.71,58.75,44.5,13.625,13.805,14.18
1478,14.81,12.305,16.92,13.04,17.22,17.83,2.291,7.543,7.215,7.9,8.87,11.234
1479,7.465,23.94,6.844,13.12,5.35,34.56,2.834,32.4,12.09,5.895,5.793,6.383
1480,32.72,13.54,16.95,16.03,35.2,11.875,3.98,21.31,10.64,13.51,13.74,16.05
1481,22.88,65.3,6.008,68.3,2.734,22.86,12.1,5.38,4.727,11.945,7.59,12.9
1482,36.4,56.12,30.44,37.44,23.62,46.22,9.82,11.914,9.39,9.73,9.32,13.05
1483,21.88,33.97,33.25,26.95,17.45,33.53,23.38,9.75,19.31,18.47,14.41,13.77
1484,8.06,16.12,5.355,14.086,6.684,7.996,5.43,5.58,4.074,4.492,3.82,6.27
1485,19.77,9.46,62.25,9.61,43.44,8.75,16.3,9.08,6.8,8.516,0.3828,1.447
1486,24.81,8.336,8.36,5.11,8.81,12.09,5.24,2.736,5.098,3.3,10.63,6.664
1487,37.34,15.12,49.22,25.06,64.5,15.0,11.91,3.86,9.695,6.008,5.133,6.832
1488,18.11,17.67,20.78,18.62,26.81,18.83,7.52,15.3,22.92,6.027,7.34,5.605
1489,37.22,41.78,59.5,35.22,36.47,62.88,56.16,17.27,40.7,52.5,33.06,27.12
1490,25.06,101.56,29.84,46.3,19.78,117.94,10.28,8.91,12.8,19.58,21.4,51.53
1491,5.453,8.75,20.62,10.086,18.39,12.28,2.322,15.86,19.84,20.25,53.25,4.65
1492,16.81,10.99,23.22,12.5,58.2,14.734,6.484,3.201,18.45,10.18,7.832,11.125
1493,19.0,11.19,16.22,12.84,45.25,16.42,28.2,6.65,3.436,3.127,4.32,5.97
1494,5.16,23.23,45.94,14.31,11.7,19.19,6.83,40.3,53.9,17.16,6.824,5.977
1495,8.16,46.5,20.81,30.61,2.664,97.6,6.953,5.246,11.71,7.246,10.164,15.125
1496,31.62,29.16,15.27,35.7,40.34,14.45,2.129,13.01,19.1,28.34,26.81,28.03
1497,11.695,11.96,41.34,10.516,18.36,22.27,18.12,23.72,18.05,9.28,6.96,5.727
1498,11.6,17.17,33.12,13.72,46.16,20.61,3.256,6.816,236.4,7.926,6.098,6.574
1499,20.36,124.2,12.95,42.06,12.08,23.34,48.97,33.66,2.596,8.22,90.7,11.836
1500,8.05,14.555,3.658,12.85,5.86,16.72,3.576,6.348,14.03,12.086,8.95,9.086
1501,74.94,30.78,120.1,68.75,89.0,122.1,14.75,25.2,9.22,112.5,39.3,26.58
1502,10.81,40.16,76.1,26.98,8.25,67.06,13.6,6.02,11.95,16.31,14.31,14.48
1503,22.06,10.99,22.66,18.11,27.02,9.516,1.695,7.055,9.57,5.324,5.695,10.06
1504,16.9,24.3,17.31,18.11,13.39,56.38,25.95,6.902,5.44,3.564,6.465,8.164
1505,12.95,16.14,29.97,13.766,42.0,17.38,6.03,6.746,11.71,5.13,10.67,8.0
1506,10.71,2.248,7.24,3.105,17.6,4.22,6.996,4.543,6.21,7.15,3.36,2.207
1507,8.945,45.0,7.598,18.52,5.41,23.48,7.027,7.656,11.055,20.52,4.84,3.373
1508,9.21,12.0,11.82,10.664,8.29,31.48,4.65,3.75,9.4,7.574,3.39,2.316
1509,14.08,43.8,8.93,25.86,8.02,56.22,7.21,7.926,29.95,10.35,10.72,18.83
1510,15.93,10.305,4.39,14.58,11.23,11.22,5.867,13.64,20.61,6.38,7.46,5.53
1511,18.83,14.266,56.62,14.195,26.83,23.36,11.02,13.37,13.05,2.182,2.19,6.62
1512,9.02,18.92,37.66,12.79,10.07,30.11,5.61,26.67,41.56,11.19,7.203,11.414
1513,7.965,22.61,21.45,16.88,8.47,27.47,44.16,12.04,7.496,6.75,13.15,9.375
1514,172.1,266.2,58.4,281.8,105.2,73.3,75.94,47.84,55.03,66.25,81.4,148.8
1515,25.72,37.12,3.98,50.25,9.82,9.61,71.7,11.37,15.52,4.105,7.91,13.805
1516,14.45,20.12,36.12,18.66,12.98,34.8,5.645,9.125,10.35,11.836,4.996,12.74
1517,15.164,36.84,16.33,23.36,11.79,28.75,6.69,3.615,35.4,12.37,9.06,11.69
1518,6.344,23.03,5.71,10.71,4.297,8.66,15.24,11.05,12.67,6.598,9.9,27.22
1519,21.11,25.88,41.47,18.8,30.4,37.9,3.088,5.41,11.02,12.016,6.613,9.62
1520,16.34,29.66,17.8,24.05,10.42,43.7,4.93,13.26,7.15,19.66,11.06,25.75
1521,5.2,37.62,2.238,14.8,2.387,16.69,2.236,8.3,12.22,35.72,10.81,6.42
1522,12.84,34.38,31.83,18.42,8.65,46.25,3.209,6.734,8.875,1.865,3.48,4.926
1523,6.86,18.27,6.36,7.074,4.855,75.3,7.22,7.812,14.01,4.805,3.002,1.477
1524,19.53,32.97,6.074,28.94,12.125,31.19,8.195,9.18,10.805,11.016,10.625,9.48
1525,9.97,16.27,24.14,11.875,8.84,31.98,3.188,2.691,3.678,11.445,12.0,14.516
1526,7.246,12.484,21.62,9.77,7.395,10.68,10.97,16.61,5.945,4.15,4.035,3.396
1527,14.195,31.66,7.89,50.97,9.305,9.31,19.11,3.506,4.49,8.36,18.2,21.11
1528,14.69,13.44,13.08,11.69,17.77,13.57,7.848,3.666,2.94,9.87,10.805,6.625
1529,26.77,51.38,16.47,29.52,20.16,40.25,36.28,10.67,7.625,17.05,21.2,12.13
1530,20.67,13.914,21.88,14.83,40.3,11.586,28.42,12.984,6.84,4.52,26.12,16.17
1531,10.59,37.78,61.28,20.67,6.227,68.7,4.78,46.6,17.66,7.965,2.666,1.562
1532,3.373,13.41,41.06,5.633,5.96,48.97,6.56,12.02,5.43,4.02,1.376,1.479
1533,12.34,54.06,7.57,32.0,10.625,10.28,28.19,17.03,25.36,30.48,23.12,17.83
1534,7.906,17.3,4.258,11.125,4.277,25.48,2.7,6.637,7.812,5.844,12.72,10.555
1535,33.1,19.0,12.39,33.44,16.08,6.805,11.5,2.75,17.69,11.04,11.24,13.62
1536,7.01,10.98,8.48,7.85,6.73,28.42,3.959,2.613,0.9517,0.854,6.992,1.881
1537,9.68,59.0,17.19,25.03,7.848,59.3,4.824,32.5,44.84,29.84,18.11,49.78
1538,13.914,31.55,40.12,19.0,13.14,69.94,22.77,18.45,29.72,18.19,9.8,11.305
1539,5.03,18.61,2.947,7.406,3.871,3.76,5.15,7.035,4.906,3.008,3.145,2.68
1540,7.996,20.48,55.78,10.18,16.56,59.97,26.58,10.03,6.96,7.61,4.203,4.934
1541,24.28,27.12,5.254,23.73,10.93,11.05,20.06,14.47,20.95,9.04,5.996,11.74
1542,17.8,18.27,13.086,21.16,19.06,14.08,6.68,7.375,9.43,9.4,5.85,6.727
1543,11.586,93.06,5.617,31.25,3.467,41.6,17.69,6.363,10.29,30.3,17.08,16.25
1544,5.227,23.95,7.613,12.78,3.998,20.12,11.21,21.61,12.33,14.79,18.72,30.94
1545,9.35,36.56,28.33,15.64,3.88,68.6,7.543,9.78,21.55,9.06,11.805,6.96
1546,26.33,31.98,19.5,36.94,17.6,25.45,12.99,25.7,24.64,22.53,17.03,11.03
1547,8.46,21.83,18.78,9.1,8.51,34.9,11.88,5.98,4.723,43.47,20.4,19.73
1548,4.996,44.8,1.474,9.41,2.576,1.189,2.756,14.17,18.03,10.63,11.625,5.363
1549,21.11,48.22,9.74,26.55,16.0,90.2,31.67,6.598,28.25,24.34,15.88,15.625
1550,17.53,32.53,7.9,97.3,6.25,14.91,62.4,47.25,80.56,15.21,33.78,6.727
1551,38.8,48.03,6.96,63.94,18.64,9.16,10.49,1.605,10.84,3.607,17.17,40.88
1552,3.254,4.344,27.83,3.031,9.06,7.562,2.67,7.285,4.844,2.012,1.767,2.56
1553,33.16,24.16,17.7,32.25,24.66,12.35,40.72,13.21,13.84,15.39,22.61,58.72
1554,5.004,7.78,18.47,7.496,6.16,5.617,3.367,12.055,6.375,4.242,3.28,6.176
1555,31.84,92.1,124.5,59.9,30.52,127.2,6.727,5.0,4.387,7.312,27.3,15.12
1556,58.06,29.17,26.36,28.23,22.62,26.17,24.02,12.266,6.234,10.945,14.93,36.38
1557,5.805,5.676,0.981,16.95,2.275,1.522,1.601,0.762,27.3,46.88,13.62,7.426
1558,40.66,49.28,33.34,45.1,35.4,34.06,15.625,10.53,20.55,12.34,12.695,14.12
1559,18.39,9.336,25.31,7.633,67.5,15.51,5.07,1.711,11.875,4.5,3.932,6.52
1560,26.4,14.88,15.49,12.086,37.78,14.16,8.03,3.004,5.54,5.695,7.367,9.22
1561,5.68,6.875,63.88,5.24,10.52,15.05,4.367,6.293,4.875,0.712,1.818,2.71
1562,15.836,27.38,6.223,21.83,12.336,6.26,14.52,20.4,21.48,9.72,7.855,8.93
1563,43.75,9.12,24.22,26.69,27.05,5.613,12.125,6.965,7.523,7.06,3.887,12.63
1564,16.48,32.9,55.72,23.38,20.67,40.97,9.0,5.574,6.4,12.92,14.1,14.14
1565,8.76,42.53,23.12,15.734,8.555,102.56,8.86,9.33,23.7,10.195,9.0,19.98
1566,18.81,12.94,15.49,12.41,27.84,13.086,7.844,0.588,10.28,9.055,9.0,8.21
1567,18.28,21.14,21.36,24.1,5.695,20.28,8.46,8.09,14.7,18.16,16.06,12.05
1568,8.94,20.55,6.094,13.02,6.547,3.355,4.227,12.15,8.55,6.965,5.734,19.12
1569,4.543,6.453,3.805,14.33,2.104,4.598,7.316,3.709,1.415,1.322,1.677,1.439
1570,12.016,31.58,6.18,31.55,6.406,11.57,17.1,14.49,12.58,7.742,9.92,14.664
1571,8.1,10.766,5.566,12.55,5.066,6.605,2.383,1.528,4.86,5.99,5.37,7.84
1572,14.375,32.5,30.8,20.42,17.83,47.44,20.62,9.625,4.84,19.27,16.3,24.31
1573,9.31,9.55,25.64,8.766,12.6,14.17,11.97,6.562,2.533,2.137,2.936,5.48
1574,21.23,40.72,11.59,75.44,11.28,26.48,22.75,14.74,34.44,47.16,28.98,19.27
1575,10.734,38.12,2.182,56.4,5.184,15.28,11.55,7.414,16.88,52.78,11.71,15.766
1576,13.445,110.5,24.0,36.4,9.63,61.1,32.75,6.508,4.58,18.4,42.56,91.6
1577,17.08,13.14,15.99,14.96,16.33,14.07,14.2,2.486,18.27,12.39,7.688,9.18
1578,11.81,32.38,14.945,21.72,4.453,38.38,6.926,3.428,2.516,1.437,3.525,2.844
1579,135.5,16.3,27.44,27.2,84.4,18.02,17.14,2.512,7.477,19.3,9.0,13.47
1580,29.34,23.97,62.72,22.45,88.75,27.19,14.62,13.21,11.53,16.39,12.805,13.2
1581,11.98,30.08,18.3,15.164,17.27,19.22,24.9,3.947,7.26,9.45,5.63,5.96
1582,2.164,91.3,9.69,14.83,2.018,37.22,7.887,15.79,15.445,8.16,12.93,4.902
1583,18.0,26.34,25.5,19.92,20.8,42.06,4.348,5.15,9.305,5.85,7.33,12.52
1584,30.7,87.2,49.47,64.1,6.547,83.1,36.72,24.23,25.38,63.6,45.53,32.38
1585,25.11,32.03,35.62,25.64,18.38,26.89,6.664,2.66,5.914,33.47,21.77,22.0
1586,6.617,31.36,3.76,11.15,2.992,33.97,7.31,15.414,8.58,6.54,6.977,4.375
1587,18.23,60.88,49.1,34.2,10.74,123.75,15.8,3.617,6.426,19.3,25.97,21.42
1588,20.72,16.83,26.25,16.1,41.28,18.12,52.75,2.582,6.242,6.84,6.797,6.793
1589,11.02,2.283,33.7,3.402,27.55,5.15,2.936,12.99,27.66,15.21,5.645,3.41
1590,5.05,5.64,18.88,4.42,8.164,7.89,12.62,4.535,1.298,1.142,1.516,2.6
1591,41.53,123.3,89.6,77.94,38.06,56.47,10.6,10.31,5.348,6.367,12.51,39.88
1592,23.7,16.06,7.742,19.27,5.293,11.37,7.027,10.84,24.06,6.75,5.105,6.355
1593,14.12,28.97,41.5,16.2,48.38,28.42,9.695,18.39,7.812,2.24,3.666,4.41
1594,7.043,6.953,9.16,3.42,6.855,5.223,5.645,4.812,2.662,1.339,1.799,6.617
1595,39.56,10.42,5.082,16.81,26.83,7.324,9.99,7.785,22.3,5.348,4.316,5.723
1596,20.0,30.1,2.078,27.19,9.375,7.406,10.71,12.46,12.445,13.57,14.76,24.1
1597,16.55,29.66,90.75,19.61,39.88,46.0,5.227,8.734,16.22,8.58,6.16,9.52
1598,14.57,30.11,31.56,18.3,12.23,67.1,6.62,4.938,32.72,10.75,10.32,25.34
1599,29.38,71.94,33.8,43.2,22.92,107.7,47.72,52.72,68.1,37.03,25.55,29.27
1600,12.0,5.117,21.88,7.973,26.56,4.574,1.779,10.97,33.4,9.78,2.217,4.875
1601,11.88,22.23,8.65,18.84,6.684,14.445,4.434,1.9375,2.1,2.174,7.965,12.445
1602,11.266,88.44,6.6,29.3,4.973,18.66,51.84,10.29,10.23,27.89,14.7,12.164
1603,15.6,46.84,10.47,25.16,11.96,37.62,19.34,13.92,12.016,23.9,13.055,15.55
1604,8.47,52.66,16.7,31.92,7.89,62.38,7.363,18.83,17.97,13.664,13.55,21.81
1605,18.08,68.7,21.3,28.3,14.414,43.0,11.11,8.586,13.95,17.67,14.51,23.72
1606,16.44,8.66,5.406,11.25,27.02,8.38,6.33,2.115,13.94,3.113,3.572,3.346
1607,16.7,35.12,7.19,25.42,10.01,81.9,4.53,5.35,5.492,17.39,18.97,21.55
1608,7.383,135.4,5.31,22.1,4.88,20.48,12.555,8.38,17.1,10.77,33.7,8.42
1609,20.42,40.1,47.06,26.1,25.1,50.7,6.508,6.88,10.5,7.543,5.46,10.33
1610,21.06,171.8,108.1,127.9,51.8,149.2,24.16,21.44,34.94,35.2,47.4,82.2
1611,12.445,56.2,6.547,30.84,6.227,51.97,57.84,35.5,3.72,8.07,13.56,9.43
1612,14.94,15.26,17.73,13.586,9.336,22.02,13.08,9.08,14.914,7.27,7.06,5.992
1613,24.17,31.55,36.56,25.47,48.94,48.97,9.91,14.445,12.17,20.36,12.24,11.57
1614,13.48,17.08,56.28,13.01,11.57,30.89,12.305,4.668,8.04,7.965,4.59,4.31
1615,17.06,16.34,58.03,16.94,24.47,40.97,23.27,3.459,2.885,4.57,7.965,10.2
1616,13.91,20.5,6.38,19.69,5.562,27.03,18.48,7.45,37.28,14.445,10.18,9.55
1617,10.37,30.62,58.75,18.38,18.05,42.75,4.94,6.637,28.7,10.89,7.598,8.055
1618,37.9,28.1,18.83,33.06,47.97,13.44,2.525,9.67,20.11,12.92,23.75,4.28
1619,9.57,22.92,2.502,15.07,7.12,31.88,8.05,8.52,16.72,16.28,14.32,15.734
1620,3.453,7.484,38.16,3.521,7.164,25.27,0.719,3.418,13.75,8.31,6.668,3.477
1621,26.62,31.23,19.75,32.06,10.35,23.77,26.92,12.89,23.72,15.766,13.43,12.19
1622,21.11,25.69,44.0,20.39,17.77,33.16,22.61,11.59,8.625,11.836,7.336,6.863
1623,7.47,9.18,17.7,8.51,9.94,17.22,1.96,3.584,4.477,2.84,1.916,1.922
1624,17.45,119.3,35.66,91.4,14.0,136.1,21.27,15.77,3.166,26.4,25.48,43.44
1625,8.56,44.38,4.055,13.64,4.77,15.914,13.08,18.2,9.74,11.83,36.56,53.72
1626,4.63,15.58,5.04,14.375,3.96,7.86,29.77,11.05,2.742,3.477,5.676,9.12
1627,57.9,76.1,23.84,74.94,30.1,49.75,14.92,4.52,7.6,16.44,37.66,53.7
1628,17.05,11.9,6.098,18.64,6.562,13.99,7.77,5.848,12.484,9.3,6.33,6.137
1629,20.88,19.27,38.16,23.47,26.9,17.6,15.945,15.88,25.86,11.33,7.734,7.223
1630,17.05,5.44,10.19,10.15,25.08,6.004,0.734,1.346,4.95,9.58,5.664,8.26
1631,25.17,36.94,6.496,38.28,9.805,12.734,18.88,9.7,10.06,7.81,10.98,33.8
